0,0.026915,0.0022727,0.00049767,0.0002944,-0.00020817,-0.0016175,-6.9018e-05,-0.0043404,-0.00064258
0.0097656,0.037893,0.0030283,0.00051707,-0.00066028,-0.00077184,-0.0020525,-0.00041466,-0.0039097,-0.0011882
0.019531,0.055911,0.010307,0.0070226,1.0681e-05,0.00029812,0.0062899,0.002358,0.0053595,0.0019406
0.029297,0.040104,-0.0025783,-0.0056526,0.00075611,0.00068463,0.00016874,-0.0006392,0.00025403,-0.00077126
0.039063,0.035206,0.0063269,0.0042468,-0.00075548,-0.00025222,0.0033416,-0.0012261,0.0026069,0.0018316
0.048828,0.0038618,-0.0053936,-0.0060602,0.0020645,0.0023758,0.00065994,-0.00014401,0.0010918,0.0024268
0.058594,-0.018719,0.00039427,0.001771,0.001189,0.001414,0.00080595,-0.00014248,0.0018744,0.0021964
0.068359,-0.026292,-0.0013927,0.00040079,0.0004946,0.0010489,-0.0022343,-0.00017191,-0.0025368,-0.00091048
0.078125,0.0022133,0.0072016,0.0075609,0.0014,0.0023858,0.0097778,0.001704,0.0043243,0.0010919
0.087891,0.011156,0.0047482,0.0042867,-0.00025922,0.00063917,0.0041096,0.0040834,0.006851,0.0022097
0.097656,0.00015853,-0.0078107,-0.0083848,0.0016136,0.0010123,-0.0059775,-0.0043384,-0.0073238,-0.001886
0.10742,0.013296,0.0037339,0.0030452,-0.0020396,-0.0019943,0.001532,0.0015735,0.0023077,-0.00069793
0.11719,0.0089513,-0.0010522,-0.0017727,-0.00061549,-0.00070601,0.00055489,-0.00045556,0.00069405,0.0017985
0.12695,0.012493,-0.00044828,-0.0013804,0.0013542,0.0018202,0.002288,0.0018671,0.0031033,0.0021964
0.13672,0.014037,-0.0017326,-0.0028685,-0.0015554,-0.00033259,0.00084826,-0.0004239,0.0015338,-0.0010973
0.14648,0.0031231,-0.012149,-0.012039,-0.0029447,-0.0021461,-0.0042155,-0.004986,-0.013502,-0.0028635
0.15625,0.10448,-0.011299,-0.010461,0.00031042,-0.00076653,-0.0031343,0.0042565,-0.0060816,-0.0032253
0.16602,0.3664,-0.006281,-0.0035835,-0.0051107,-0.0050041,-0.00079722,0.010403,0.00075071,-0.0034487
0.17578,0.21722,-0.017939,-0.016237,0.00030161,-0.0013523,-0.0048913,-0.019033,-0.0023256,-0.0045803
0.18555,-0.26858,-0.012851,-0.014702,-0.008015,-0.0030781,0.0010802,-0.010889,0.00061618,-0.00017469
0.19531,-0.59669,-0.01709,-0.021285,0.0013648,0.0041448,0.0015818,0.0057543,-0.00064316,0.002101
0.20508,-0.34225,0.032671,0.029957,-0.0050014,-0.0040504,0.0048355,0.012585,0.004557,-0.002428
0.21484,-0.073429,0.035465,0.034677,-0.0069762,-0.0056327,0.017562,0.01627,-0.00034254,-0.0030635
0.22461,0.03367,-0.0016543,-0.0013987,0.00095411,-0.00026484,0.0011425,0.00020275,0.0029224,0.0011644
0.23438,0.012512,-0.002545,-0.002436,0.0014226,0.0026096,-0.0020338,-0.00083017,-0.0028207,0.00091802
0.24414,0.01496,-0.00070956,-0.00059614,-0.0018285,-0.0016492,-0.00017519,0.00095187,-3.7072e-05,-0.0013347
0.25391,0.020861,-0.0022691,-0.0040203,0.00087834,0.00059913,9.9099e-07,-0.00044684,-0.00013582,-0.0012875
0.26367,0.012808,-0.0016814,-0.0027785,0.001467,0.0017644,-0.00096077,-0.00034068,-0.0015519,0.00029898
0.27344,0.016956,-0.00061077,-0.0019408,0.0034886,0.005123,0.00039384,-2.268e-05,0.00086743,-0.0028031
0.2832,0.0039155,-0.0056512,-0.0063756,-6.7947e-05,-0.00076896,-0.0024979,-0.0019376,-0.0022411,0.00069247
0.29297,0.025519,0.0012546,-0.00058252,0.00073132,0.00076136,0.0055056,0.0073257,0.0065407,0.0026065
0.30273,0.0141,-0.011526,-0.013466,0.0012568,0.00126,-0.0074224,-0.005748,-0.007247,-0.0013931
0.3125,0.019299,-0.0093388,-0.011507,-3.4194e-05,-0.00031006,-0.0018091,-0.0018343,-0.0015766,-0.0011998
0.32227,-0.0033527,-0.0044964,-0.004583,0.0003501,-0.00061384,-0.0020728,-0.0044685,-0.0015804,-0.0012672
0.33203,-0.011091,-0.0040062,-0.0034697,0.00061455,-0.00043894,0.0016717,-5.5962e-05,0.0014652,0.0020133
0.3418,-0.01786,-0.0039664,-0.0029144,-0.00063275,-0.00073578,0.0024521,0.00096447,0.0011343,0.0018557
0.35156,-0.0058159,-0.0072856,-0.0073969,-0.0025086,-0.0022619,-0.001201,0.00077965,-0.0014155,-0.001698
0.36133,0.0078825,-0.0039282,-0.0048224,-6.5938e-05,0.0011042,0.00018555,0.0020896,0.00025432,-0.003154
0.37109,0.027568,-0.0050794,-0.0075514,6.5597e-05,-0.00033121,-0.0022691,0.0010177,-0.001938,-0.0034425
0.38086,0.047251,-0.0013343,-0.005013,-0.001505,-0.0014517,-0.002491,-5.2846e-05,-0.0033162,-0.0018729
0.39063,0.075721,0.0030086,-0.0024968,0.0011501,9.1208e-05,-0.00085041,0.0026532,-0.001123,0.00088889
0.40039,0.096403,0.011882,0.0054824,0.0019167,0.0023382,0.0012041,0.0033553,0.0014146,0.0012727
0.41016,0.10584,0.0065706,-0.00094567,-0.0054656,-0.005941,-0.00077618,0.00099567,-0.00042681,-0.0020705
0.41992,0.10786,0.010253,0.0028629,0.00093653,-0.00027843,-0.00039039,-0.001055,-0.00184,0.00025747
0.42969,0.1041,0.0097661,0.0026233,-0.00085271,-0.00048324,-0.00090336,-0.0016128,-0.0014077,-0.0018572
0.43945,0.088214,0.0096018,0.0036497,-0.0024315,-0.001641,0.00073301,-0.002388,0.00041359,-0.0012764
0.44922,0.05769,0.0033102,-0.00080717,-0.00066595,-0.00015117,-0.0015941,-0.0059386,-0.0031398,0.0021404
0.45898,0.031445,0.0054232,0.0034529,-0.0020806,-0.0012977,0.00012401,-0.0046202,-0.00035232,-0.00012495
0.46875,-0.0062633,-0.0054091,-0.0053445,-0.0021137,-0.001515,-0.0036306,-0.0077201,-0.004057,-0.0016781
0.47852,-0.022981,0.0017861,0.0036613,4.9961e-05,0.0005573,0.0011864,-0.0012842,0.0019862,0.00083785
0.48828,-0.04721,-0.0072719,-0.0042481,-0.0016968,-0.0008043,-0.0028258,-0.0067997,-0.0056359,-0.001623
0.49805,-0.048155,0.0034565,0.0073643,-0.001953,-0.0023532,0.0027712,0.0011739,0.0026202,0.0021189
0.50781,-0.056425,-0.0045639,-0.00063722,-0.00091638,-0.0010279,-0.0024592,-0.0027594,-0.0027677,-0.001131
0.51758,-0.054157,-0.0029174,0.00096221,-0.00014376,-0.00017204,-0.0013481,-0.00095214,-0.00075943,-0.0017411
0.52734,-0.054186,-0.0036574,0.00016838,0.0017084,0.0017657,-0.0015935,-0.0015045,-0.0024275,-0.0022943
0.53711,-0.0445,-0.0014839,0.0017731,0.0004463,0.0016175,-0.001263,-0.00012044,-0.00064811,8.6383e-05
0.54688,-0.044581,-0.0075861,-0.004785,0.0021567,0.0021368,-0.00071544,-0.0010832,-0.0023641,-0.00022174
0.55664,-0.036998,-0.0060556,-0.0037127,-0.00034899,0.00074963,-0.0046125,-0.0026748,-0.0042986,-0.0001068
0.56641,-0.02943,-0.0043405,-0.0024408,0.00014783,-0.00013841,-0.0013298,-0.001183,-0.002067,-0.00077919
0.57617,-0.021634,-0.0053128,-0.004077,0.00051635,-0.00026422,-0.00051806,0.00036297,-0.0014059,-0.0012728
0.58594,-0.010406,-0.0014674,-0.00079057,-0.0014464,-0.0011813,0.0011767,0.002791,0.0018736,0.0018267
0.5957,-0.010193,0.015527,0.010471,0.0033456,0.0045036,-0.0030632,-0.00050111,-0.0035758,-0.0013913
0.60547,-5.5923e-05,0.019062,0.015304,0.0020434,0.0019793,-0.0021278,-0.00057016,-0.0018119,-0.0025404
0.61523,0.0074321,0.021517,0.018748,-0.0017571,-0.0016123,0.0010413,0.0012931,0.0017359,0.0011062
0.625,0.010657,0.019657,0.017888,-0.00055007,-0.0003208,0.00060737,0.00067611,0.0014692,0.00098715
0.63477,0.011867,0.019177,0.01774,-0.0034236,-0.0038934,-0.00023034,-0.0001625,-6.4341e-05,-0.00094642
0.64453,0.01537,0.017367,0.016974,0.0017832,0.0021492,0.00044693,0.00036793,0.0014654,0.0011271
0.6543,0.0099326,0.012076,0.011655,0.00063572,0.0012219,-0.0013185,-0.0011146,-0.0010204,-0.0017759
0.66406,0.0095271,0.0082503,0.0085013,0.0031184,0.0033296,0.00079696,0.0010802,0.00075204,0.0019479
0.67383,0.0085029,0.0099468,0.0096629,-0.0017382,-0.0015605,0.00021218,-0.00025676,0.00045183,-0.0011719
0.68359,0.0052282,0.006892,0.006565,-0.0011446,-0.0013271,0.00032205,-0.00018965,0.00060951,0.00080792
0.69336,-0.0058621,6.1695e-05,-0.0011028,-1.5566e-06,0.00075961,-0.0015258,-0.0017907,-0.0020165,-0.0010372
0.70313,-0.0047434,0.00014637,-0.00081488,0.00052774,0.0017447,0.00074565,0.00066866,0.0018087,0.0013552
0.71289,-0.012485,-0.0031518,-0.0049867,0.00095784,0.00026618,-0.0005756,0.00015201,-0.00079647,-0.00041519
0.72266,-0.015811,-0.0076811,-0.0092792,-0.0013323,-0.0011749,-0.0011463,-0.00088329,-0.0014536,-0.0014297
0.73242,-0.017412,-0.0060823,-0.0083096,-0.00024626,-0.00035236,-0.00048955,-0.00025895,-0.00020497,-0.0019952
0.74219,-0.014667,-0.0085072,-0.0097182,4.4596e-05,0.0001015,0.0028447,0.0014815,0.0026353,0.0021901
0.75195,-0.015334,-0.0021771,-0.0047635,-0.00099927,-0.000409,0.0023155,0.0017271,0.0028474,0.0015504
0.76172,-0.0086677,-0.0056953,-0.0062796,9.0073e-05,-0.00021348,0.001279,0.0013796,0.0019398,0.0015199
0.77148,-0.0011136,-0.0057435,-0.0048333,0.0017939,0.0018503,-0.0020044,-0.00070093,-0.0015296,-0.0015371
0.78125,0.012869,-0.0036507,-0.00040323,0.0017682,0.0015421,-0.0011731,2.8425e-05,-0.0012643,-6.7535e-05
0.79102,0.017836,-0.0097303,-0.0043111,-0.0034848,-0.0034737,-0.005544,-0.00057136,-0.0064728,-0.00035145
0.80078,0.03644,-0.0041723,0.0038114,0.0010583,0.0017723,-0.0026132,0.00053324,-0.0035408,0.0011818
0.81055,0.05437,0.003366,0.013393,0.00031418,0.000594,0.0034676,0.0016684,0.0041642,0.00066751
0.82031,0.037154,-0.0052681,0.0030712,-0.00078459,-0.0012323,0.0021274,0.00017948,0.0020121,-0.00020341
0.83008,0.023393,-0.0029273,0.0022468,0.0011188,-6.614e-05,-0.00019071,-0.0013975,-1.6581e-05,-0.00060264
0.83984,-0.0046667,-0.0040413,-0.0041642,-0.0010648,-0.0012399,-0.0019654,-0.0036288,-0.0028083,-0.0013089
0.84961,-0.014372,0.011625,0.0065145,0.00055599,0.00029292,0.0020069,0.00090617,0.0054909,0.00094814
0.85938,-0.018644,0.0012341,-0.0026736,-0.00078882,-0.00061468,0.0034863,0.0038619,0.0046,0.0010627
0.86914,-0.0076355,-0.0028952,-0.0038271,3.2016e-05,0.00038572,0.00027511,0.00084277,-0.00039576,0.00083549
0.87891,0.013736,0.00054257,0.0031362,0.00043042,0.00077183,0.003299,0.0028896,0.0042697,0.0012366
0.88867,0.0084509,0.00062131,0.0021605,-0.00099637,-0.00059651,0.0011971,0.00023207,0.001004,0.00082338
0.89844,0.016689,0.0036399,0.0062052,-1.4766e-05,0.00034521,0.001871,0.001488,0.0030403,0.00078691
0.9082,0.011778,0.00051493,0.0027291,0.0015469,0.001151,0.0016039,0.00081669,0.0020781,0.001337
0.91797,0.015522,-0.00037841,0.0027473,0.0001682,-0.00055043,-0.00046942,0.00021374,-0.00063847,-0.0019244
0.92773,0.016791,0.0016764,0.0016432,0.0020363,0.001104,0.00018631,-0.00016865,-3.1753e-05,0.0013177
0.9375,0.022733,0.0022071,0.002162,-0.00028225,-0.00030721,0.00047917,0.0015734,0.00038629,0.0014364
0.94727,0.19735,0.0024208,0.0019922,5.9868e-05,0.0015969,0.00082292,0.017088,0.0076305,0.0032813
0.95703,0.4462,0.011334,0.010378,-0.0043995,-0.0040535,6.8857e-05,0.007855,0.00060004,-0.0023097
0.9668,0.15086,-0.0045117,-0.0048533,-0.0035361,5.8067e-05,-0.0014957,-0.021139,-0.0048778,-0.0061229
0.97656,-0.40245,-0.017298,-0.016452,0.0078279,0.0030971,0.001543,-0.018611,0.0045623,0.00032948
0.98633,-0.6007,0.0087761,0.010116,0.00094915,-0.00059975,0.0016209,0.0065431,0.0027467,0.0020463
0.99609,-0.35365,0.026808,0.027644,0.002398,0.0011868,-0.0036383,0.0021746,0.00022671,-0.0012822
1.0059,-0.029545,0.023249,0.023365,-0.00032667,-0.0021145,0.031088,0.01022,-4.1848e-05,0.0019829
1.0156,0.017245,-0.0087838,-0.008841,-0.0019629,-0.00099035,-0.0046802,-0.002757,-0.0015228,-0.0033559
1.0254,0.016559,0.000333,0.00029733,-0.0011753,-0.0020895,-0.00021687,-0.0006706,0.0022049,-0.0014926
1.0352,0.016492,0.001054,0.0010201,0.00066249,-0.00019171,0.00054933,0.0011911,0.0014788,0.00044454
1.0449,0.020498,-0.0013308,-0.0017178,-0.00012099,0.00056686,0.00091294,-0.00016979,0.00083587,-0.00035148
1.0547,0.01518,0.00030005,3.6252e-05,-0.00055085,-0.0007291,-2.47e-05,0.00091141,-0.00086969,0.00099652
1.0645,0.016784,-0.00016899,-0.00046955,0.0017938,0.00073067,0.0012327,0.0011109,0.0012685,0.00085184
1.0742,0.012989,0.002371,0.0021827,-0.0016054,-0.0013434,-0.0011246,-0.00080574,-0.0018292,-0.00076103
1.084,0.019428,-0.0071014,-0.0075717,0.00068104,7.8402e-05,-0.0030065,-0.0028886,-0.0038355,-0.0010022
1.0938,0.028492,-0.0019568,-0.0024966,-0.00095103,2.2437e-05,0.0001214,0.0016644,0.00028473,-0.0014744
1.1035,0.022501,-0.0033969,-0.0038561,0.0019724,0.0019208,0.00061164,-0.0016382,0.00013351,0.00084008
1.1133,-0.01096,-0.010845,-0.010843,0.0051776,0.0061033,-0.0054099,-0.0072,-0.0056924,0.002665
1.123,-0.017874,-0.0085803,-0.0084156,-0.00071964,-0.00027402,0.0012264,-0.00087084,0.00082055,0.001872
1.1328,-0.019567,-0.0052875,-0.0050343,0.0011933,0.00098335,0.00027976,0.00097543,0.00029499,0.0016676
1.1426,0.00066256,-0.0048924,-0.0049909,0.0015082,0.0014433,0.0013491,0.0032351,0.0017158,0.0010758
1.1523,0.010793,-0.00542,-0.0057074,0.00039546,-0.0010349,-0.0010934,0.00069488,-0.0027939,0.00074846
1.1621,0.037186,-0.0028477,-0.0035575,-0.0011232,-0.00039401,0.0007672,0.003268,0.00064333,0.00093117
1.1719,0.05652,-0.00083038,-0.0018472,0.0020274,0.0028226,-0.00072578,0.0026168,-0.0011408,6.1907e-05
1.1816,0.080579,8.9624e-05,-0.0013374,1.6626e-05,0.00017186,0.00069847,0.0035827,0.00098098,-0.0010097
1.1914,0.096634,0.00094303,-0.00075349,0.00064755,0.00043885,-0.00055723,0.0015171,-0.00097555,0.0007873
1.2012,0.10604,-0.00072488,-0.0026178,0.0014354,0.0013466,-0.0008073,-1.5056e-05,-0.0024096,-0.00093633
1.2109,0.10252,-0.0036547,-0.0055371,0.00044082,0.00099875,-0.0043593,-0.0039384,-0.0052551,-0.0024632
1.2207,0.1056,0.0064915,0.0047344,0.0010141,0.0021732,0.0015885,0.00040833,0.0014065,0.0021143
1.2305,0.09067,0.012292,0.010903,0.00033172,0.00029671,0.0041228,0.00082899,0.0038749,0.001481
1.2402,0.064701,0.0092845,0.0083021,0.0010846,0.0012375,0.0020394,-0.0015802,0.0024229,0.00098746
1.25,0.024623,0.0042781,0.0039175,-0.0001755,-0.0010038,-0.0013467,-0.0052989,-0.00077627,0.00057677
1.2598,-0.0038806,0.0026767,0.002793,-0.0008426,-0.0019473,0.00021575,-0.0027013,0.0007011,0.0010997
1.2695,-0.032649,-0.001401,-0.00084703,0.002224,0.0023789,-0.0024646,-0.0052351,-0.0033106,0.00034658
1.2793,-0.044495,0.00068181,0.0014827,-0.00047907,-0.0016886,3.9841e-05,-0.0018575,0.00057403,-0.00074923
1.2891,-0.056042,-0.0010585,-8.3666e-05,0.0019799,0.0026479,-0.00098736,-0.0021841,-0.00068783,-0.00090411
1.2988,-0.057586,-0.001607,-0.00061458,-0.0012621,-0.0017652,-0.0010846,-0.0015114,-0.0014582,-0.001096
1.3086,-0.049682,0.006961,0.0079652,0.00091616,0.000228,0.0050196,0.0047824,0.0063588,0.0026445
1.3184,-0.052232,-0.0016486,-0.00075183,-0.00075846,-8.9825e-05,-0.00134,-0.00010768,-0.00064903,-0.00084302
1.3281,-0.046952,-0.00080511,1.3035e-05,9.085e-05,-0.00069786,0.00081163,0.0010359,0.0011427,0.0014145
1.3379,-0.037816,0.0037405,0.0044773,-2.5226e-05,-0.0010314,0.0016722,0.0036008,0.0027733,0.0010331
1.3477,-0.035619,-0.004592,-0.0040419,-0.0026224,-0.0030227,-0.0016238,-0.00078206,-0.0022388,-0.0017823
1.3574,-0.019843,0.0032279,0.0036369,0.0024209,0.002734,0.0031175,0.0039075,0.0034465,0.0013831
1.3672,-0.015242,0.0023126,0.0026239,0.00052591,0.00049921,-0.00044082,0.0011726,0.00015423,-0.00087456
1.377,-0.01115,0.00020628,0.00040761,-0.002677,-0.0034769,0.00020179,0.00082327,0.00084577,-0.0014099
1.3867,-0.00054426,0.0057277,0.0058389,-0.0012267,-0.0015703,2.1452e-05,0.0022845,0.00080757,-0.001029
1.3965,-0.00019516,0.035054,0.02229,3.5725e-05,-0.0083891,-2.7119e-05,0.0001281,-0.0011767,0.0013557
1.4063,0.010068,0.042079,0.030487,0.00024576,-0.00067045,0.001183,0.00046314,0.0012517,0.0014556
1.416,0.0044141,0.035236,0.024075,0.0011203,0.0011074,-0.0011709,-0.0012989,-0.0025389,-0.00062608
1.4258,0.013772,0.037935,0.029185,0.0008683,0.0011649,-0.00079279,-0.00076438,-0.00030358,-0.0015777
1.4355,0.015918,0.035583,0.028462,0.0018029,0.0017853,0.00085461,0.0014056,0.0023119,0.00017558
1.4453,0.011512,0.026104,0.02082,-0.0002406,-0.00018384,-0.0011707,-0.0012588,-0.0014049,-0.0013629
1.4551,0.0079955,0.017819,0.014262,0.0008933,0.0005021,-0.00285,-0.0024601,-0.0024873,-0.00181
1.4648,0.01036,0.016313,0.014157,0.0016211,0.0010924,0.00036594,0.00041727,0.00089117,0.0017257
1.4746,0.011436,0.015276,0.013885,0.0018313,0.001481,0.0022774,0.0021131,0.003579,0.00095959
1.4844,0.0011645,0.0033102,0.0025332,0.00069463,0.0012313,0.0011795,0.00014644,0.00089458,0.00082047
1.4941,-0.0072858,-0.0065706,-0.0068296,0.0025008,0.0016421,-0.0018771,-0.00065823,-0.0025834,0.0019509
1.5039,-0.0089048,-0.0087285,-0.0087923,0.0015713,0.0020072,-0.00048706,9.0195e-06,-0.0015345,0.0010401
1.5137,-0.01231,-0.0097426,-0.010672,0.0013107,0.0013316,-0.00050086,-9.5553e-05,-0.00079884,-0.00035196
1.5234,-0.020343,-0.014517,-0.016627,-0.0018009,-0.001103,-0.0040774,-0.0030659,-0.0061237,-0.0017506
1.5332,-0.016933,-0.010804,-0.013024,-0.00107,-0.00060869,-3.9613e-05,0.00048192,-0.00074146,0.00027065
1.543,-0.01585,-0.0066022,-0.0099512,-0.00070839,-0.00068897,0.00057282,0.00011183,0.00056352,0.0011483
1.5527,-0.015353,-0.0059684,-0.0093668,0.00023771,0.00024648,-5.0001e-05,0.00029485,0.00031818,-0.00072951
1.5625,-0.012971,-0.0017193,-0.0057939,0.00057342,0.00042923,0.001013,0.00073908,0.0014477,0.00046517
1.5723,-0.017216,-0.0084775,-0.011642,0.00016554,0.001211,0.00011059,-0.0001596,-0.00020426,0.0014187
1.582,-0.016535,-0.0067786,-0.010312,-0.0027351,-0.0025042,0.0025128,0.0021253,0.0029126,0.0018395
1.5918,-0.01087,-0.0061959,-0.0078885,0.00029391,-0.00030863,0.00026789,0.00040876,0.00034508,-0.00011265
1.6016,0.0064954,-0.0013825,0.0014702,-0.00095553,-0.0012238,0.0008243,0.0015061,0.0016967,-0.0015325
1.6113,0.015061,-0.0085547,-3.0354e-06,0.0018884,0.0018671,-0.0010184,0.0004341,-0.0007392,-0.00025041
1.6211,0.027551,-0.0085613,0.0045157,0.00089349,0.00073832,-0.002883,-0.00014254,-0.0038762,-0.0019363
1.6309,0.053153,0.0029268,0.021115,-0.0035451,-0.0031384,0.0032356,0.00014011,0.0024608,-0.0017607
1.6406,0.058648,0.0024939,0.022828,0.0031558,0.0038099,0.0040557,0.001015,0.0029954,0.0019258
1.6504,0.039845,0.00013742,0.014516,0.0014353,0.002037,0.0023047,-6.4923e-06,0.0026482,0.00047631
1.6602,0.021587,0.00072898,0.0082821,0.0013679,0.0010766,0.0013542,-0.00089793,0.00098012,0.0024288
1.6699,-0.0072567,0.0017525,-0.0015099,0.0023299,0.0024206,-0.0011076,-0.0012432,-0.0016644,0.0013886
1.6797,-0.019626,0.013387,0.0014321,-0.00057263,-0.00077395,-0.0012069,-0.00062093,-0.00034445,-0.00066606
1.6895,-0.0061236,0.0076773,0.0026797,-0.0025232,-0.0025539,-0.0021771,-0.00058215,-0.001479,-0.0016366
1.6992,0.0069126,0.0071961,0.0070934,-0.00011334,0.00012951,0.0021013,0.0018162,0.0019767,0.00084854
1.709,0.01782,0.0040043,0.0090071,0.0020523,0.0023388,0.0021039,0.0016899,0.0029222,0.0016463
1.7188,0.0065529,0.0035227,0.00462,-0.0019017,-0.0021905,-0.0023736,-0.0013467,-0.0029416,-0.0012307
1.7285,0.017121,0.0011876,0.0069574,-0.0034599,-0.0035815,0.0021336,0.0010082,0.0027674,6.4248e-05
1.7383,0.01054,0.0030194,0.0057426,0.00014871,-7.296e-06,-0.0009064,-0.00077546,-0.0011491,-0.00035761
1.748,0.021758,0.0023995,0.0094096,0.0017684,0.0017253,0.0017685,0.00083699,0.0023474,0.0013019
1.7578,0.014739,0.00043267,7.9274e-05,-0.0014248,-0.0023741,-0.000563,-0.00041988,-0.00037606,-0.0012881
1.7676,0.04771,0.0069799,0.0033009,-0.00041041,0.00027605,-0.00023342,0.0024274,0.00051132,0.00085207
1.7773,0.29457,0.0058037,-0.0094335,0.004734,0.0011581,0.00046655,0.010736,-0.00066659,0.0009811
1.7871,0.47301,0.010115,0.0087251,-0.0042026,-0.0022868,0.0037001,0.00039793,-0.003172,0.0030887
1.7969,-0.04629,-0.017693,0.047543,-0.010958,-0.0087487,7.4071e-05,-0.028153,0.0035486,0.0033116
1.8066,-0.65903,-0.041851,0.016147,-0.00093701,-0.0017852,-0.000995,-0.025639,-0.0015009,0.0005539
1.8164,-0.54073,0.034425,0.0044389,-0.0074508,-0.0023615,0.0051517,0.016942,0.0041603,0.0093082
1.8262,-0.33017,0.0047547,-0.034318,-0.0057676,-0.0053299,-0.042418,0.0094356,0.00092053,0.0049232
1.8359,0.01662,0.0081479,-0.01598,-0.0041548,-0.003789,0.033494,1.2098e-05,-0.00076509,-0.0035726
1.8457,0.018393,-0.0015932,-0.00050487,-0.0013814,-0.00063339,-0.0031704,0.0011227,-0.0017616,-0.0017335
1.8555,0.011374,-0.0034062,-0.0047421,-0.0040568,-0.0041587,-0.0024677,-0.0027035,-0.0059243,-0.0022464
1.8652,0.023257,0.00025541,-0.0013502,-0.0016832,-0.0027119,-0.00010988,0.00020963,-0.00041348,-0.0011027
1.875,0.017247,-0.00011454,0.0033261,0.0024082,0.0033731,-8.3388e-05,3.7043e-05,-0.00070482,0.0012214
1.8848,0.021341,0.0004862,0.001907,-0.00067188,-0.00051311,0.0012533,0.0032954,0.0031689,0.0018351
1.8945,0.0067638,-0.0071802,-0.0056322,-0.0021495,-0.0024655,-0.0028571,-0.0036757,-0.0026471,-0.0013967
1.9043,0.021802,0.0013387,0.00035987,0.00047324,0.00011269,0.0016978,0.0038965,0.0032807,0.00064863
1.9141,0.031898,0.0027962,0.0042629,0.00048391,0.00052964,0.00090841,0.0030472,0.00043337,0.0017067
1.9238,0.039886,0.0029751,0.0075297,-0.0018533,-0.0024002,0.0019293,0.0023021,0.0015336,0.0023244
1.9336,0.026382,0.0087116,0.014381,0.0038867,0.0032447,0.0036964,0.0019949,0.0069101,0.002633
1.9434,-0.00095534,0.002958,0.0045328,0.0026585,0.0024154,-0.00066096,-0.0029032,-0.00013687,-0.0012577
1.9531,-0.016839,-0.0013837,-0.0020205,0.0010612,0.0013499,-0.0023093,-0.0035004,-0.0019933,-0.00056981
1.9629,-0.0028115,0.0057861,0.0025235,0.002092,0.0011265,-0.0032744,-7.0004e-05,-0.0022354,-0.001593
1.9727,0.013325,0.0048747,0.004938,0.00031003,0.00055095,0.00091985,0.0027407,0.0015195,0.0013886
1.9824,0.02771,0.0016733,-0.00078007,0.00031848,-0.00058751,0.0016376,0.0042159,0.0019362,0.00094839
1.9922,0.038896,-0.012118,-0.010993,-0.0032156,-0.0042346,-0.0039052,-0.0020899,-0.0047151,-0.0020132
2.002,0.067272,-0.0024332,-0.0045511,0.00055029,0.00028676,-0.0014456,0.0023972,-0.0013682,-0.0015377
2.0117,0.085445,-0.0055023,-0.0030992,0.0026275,0.0035737,0.0014563,0.0029533,0.002808,0.0018659
2.0215,0.098761,-0.0070344,-0.0049478,-0.004042,-0.0039488,-0.0004722,0.0025225,0.00042141,-0.0018265
2.0313,0.10166,-0.012864,-0.0063257,0.0015009,0.00093436,-0.0022436,-0.0023157,-0.0027713,-0.0012376
2.041,0.10252,-0.0077247,-0.00065456,0.0026055,0.0032075,-0.0015859,-0.001097,-0.0017625,-0.0011149
2.0508,0.098062,-0.0025509,0.0058153,0.00098651,0.00066468,-0.0016303,-0.0028639,-0.0024009,-0.0015054
2.0605,0.070949,-0.0049507,0.0017739,-0.00088024,0.00010356,-0.00093132,-0.0057025,-0.0020196,0.00034637
2.0703,0.054919,0.00581,0.015883,-0.0017482,-0.0018692,0.0004332,-0.002753,0.0014545,-0.0016556
2.0801,0.020931,0.0083415,0.013797,0.0011569,0.00059735,0.0028287,-0.0016729,0.0037662,0.0012287
2.0898,-0.0094045,0.0033961,0.010618,-0.0002291,0.00012268,0.0026501,-0.001346,0.0030827,0.0014144
2.0996,-0.038651,0.0026477,0.0033563,3.4896e-05,-5.4508e-05,0.00069526,-0.0024853,0.00022916,0.0018971
2.1094,-0.047727,0.0047832,0.0048905,0.0034847,0.0043448,0.00012056,-0.0014939,0.00077304,0.001692
2.1191,-0.05337,0.0083404,0.0026964,0.0032504,0.0034884,0.002853,0.0023613,0.0037709,0.0017251
2.1289,-0.055301,0.0032413,0.0013598,0.0021004,0.0010705,0.0011746,0.0020387,0.0015085,0.0010796
2.1387,-0.052321,0.0047195,0.0033135,0.0013677,0.00024786,0.0021152,0.002027,0.0028405,0.0014661
2.1484,-0.045081,0.007342,0.003865,0.0028148,0.0028006,0.0027759,0.0039129,0.003746,0.0020676
2.1582,-0.044142,0.0035491,0.0010843,0.00050321,0.00035899,3.8588e-05,0.00086512,0.00068865,-0.0022755
2.168,-0.036629,0.0022618,-0.00040283,0.0022375,0.0021883,0.0013309,0.0031212,0.0013544,0.0021308
2.1777,-0.032337,0.00037865,-0.0032668,0.00015185,0.00050702,0.00030667,0.00050455,0.0001533,0.00089716
2.1875,-0.024785,-0.00076806,-0.0058534,-0.00054163,-0.00056061,-0.00086412,0.0019035,-0.00027077,-0.00030442
2.1973,-0.015784,0.0023858,-0.00062295,-0.00059549,-0.0019756,-0.00057098,0.001013,-0.00063999,-0.002088
2.207,-0.003478,0.01041,0.0082843,0.00088291,0.00083921,0.0033078,0.0025104,0.0053477,0.0014743
2.2168,0.0041441,0.013736,0.011849,-0.0020399,-0.0017744,0.0038625,0.0014413,0.0048037,0.0021652
2.2266,0.0018409,0.0094403,0.0076431,0.00038595,0.00045562,-0.00050091,-0.00033326,-0.0010823,-0.002046
2.2363,0.0076653,0.010295,0.0086281,-0.0010201,-0.0017108,-0.0001609,0.00044232,-2.8795e-05,-0.00079042
2.2461,0.008766,0.0097152,0.01016,0.0027035,0.0016661,-0.00081594,-0.00050242,-0.001159,0.0014994
2.2559,0.0050431,0.0055161,0.0035968,-0.0023843,-0.0018423,-0.00087254,-0.00013383,-0.00088741,0.00047926
2.2656,0.0081662,0.0077962,0.0095663,-0.0011081,-0.00065852,0.00019817,-0.00035758,0.00070692,-0.00086612
2.2754,0.0066213,0.0074208,0.0078568,-0.0017959,-0.0014505,0.0019363,0.00060562,0.0017809,0.0023997
2.2852,0.0044608,0.0084779,0.0096599,0.001229,0.00053082,0.0012695,0.0011778,0.0035222,0.0010777
2.2949,-0.00094717,0.0045761,0.0044635,0.0011999,0.00047651,-0.00022643,-8.7104e-05,0.00033521,-0.00037718
2.3047,-0.0054926,0.0037744,0.0017164,0.00031487,6.9864e-05,0.001609,0.00153,0.0013824,0.0007898
2.3145,-0.012544,-0.0039386,-0.0054026,-0.0008329,-0.00057728,-0.00027911,-0.00073715,-0.0013833,0.00096083
2.3242,-0.013723,-0.0017291,-0.0037713,0.00096566,0.0011471,0.00031437,-0.00021787,0.00082372,0.00085114
2.334,-0.017165,-0.0082485,-0.0072436,-0.0008139,-0.00045177,-0.0006108,-0.00078244,-0.00042037,-0.0008444
2.3438,-0.015007,-0.0040541,-0.0052405,-0.0032196,-0.0041922,0.001317,0.00090958,0.0030106,-0.0018601
2.3535,-0.0184,-0.012975,-0.015588,-0.0022107,-0.0022002,-0.00068301,-0.00058314,-0.00092311,-0.0010958
2.3633,-0.0056487,-0.012316,-0.010177,6.738e-05,0.0010117,0.00024478,0.0011638,-0.00011278,0.0021557
2.373,0.011137,-0.011212,-0.0050582,-0.0052346,-0.0051012,0.00038248,0.00084303,0.00095074,-0.0012233
2.3828,0.022867,-0.0090054,-0.0016723,0.0010365,0.00081688,-0.00067204,0.0003571,-0.00064908,-0.00095088
2.3926,0.050143,0.0029547,0.013864,-0.0034254,-0.0034014,0.0051741,0.00091682,0.0088478,-0.0012303
2.4023,0.038588,-0.017564,-0.0061691,-0.0011595,-0.0019092,-0.0052498,-0.0011053,-0.0047898,-0.001902
2.4121,0.043497,-0.00043984,0.00771,0.00065707,0.00058945,0.00028189,-0.0012558,-0.0021714,0.0014666
2.4219,0.02338,0.0010217,0.0024859,-0.00036417,0.00012147,0.0013124,0.00081928,0.0011571,0.0015866
2.4316,0.013109,0.021019,0.016896,-0.00072531,-0.0015502,0.0041551,0.0006038,0.0061029,0.0020812
2.4414,-0.019297,0.01283,0.0045818,0.0013784,0.00081638,-0.0029111,-0.0013376,-0.001712,-0.0012712
2.4512,-0.012043,0.0043029,0.0034674,-0.00099078,-0.00050746,0.0014334,0.0022606,0.00091185,0.0012655
2.4609,-0.0013244,0.0020727,0.0028223,0.00031849,-0.00048366,0.0014006,0.0010134,0.00036617,0.0016058
2.4707,0.014258,0.00013325,0.0044269,0.0042682,0.005209,0.0021353,0.0026877,0.0031768,0.0023603
2.4805,0.0084754,0.0029522,0.0026902,0.0014695,0.0020459,-0.00047214,0.0011437,-0.0011603,0.0015608
2.4902,0.016245,0.0013566,0.0044766,0.0019704,0.0023177,0.00072392,0.0012395,0.00089649,0.0013647
2.5,0.0091042,-0.00047554,0.00074448,8.7713e-05,0.0013816,-0.0014859,-0.0011911,-0.0034982,-0.0018105
2.5098,0.01839,0.00044772,0.0040723,-0.002801,-0.0025798,-0.0013449,-0.00096659,0.00044509,-0.0016861
2.5195,0.0082837,-0.0038979,-0.0048483,-0.0011397,0.00048965,-0.0015674,-0.0012475,-0.0027412,-0.00093905
2.5293,0.034357,0.0035315,0.0085244,-2.6826e-05,-0.0012054,0.00041119,0.0024084,-4.6736e-05,0.0015553
2.5391,0.25308,-0.012501,-0.0018285,-0.0018477,0.0003623,0.0055093,0.015927,0.0093881,0.0020919
2.5488,0.47271,0.0036925,-0.0035815,0.0027658,0.00092333,-0.0023421,0.0015898,-0.00025425,-0.0033076
2.5586,0.083822,0.040347,0.023205,0.0061801,0.0032235,-0.0033497,-0.030095,-0.0037773,-0.0050394
2.5684,-0.54841,0.0013636,0.0049469,-0.0010061,-0.00061815,0.001568,-0.0272,0.0021846,0.0045691
2.5781,-0.6111,-0.00017914,0.005995,0.0067416,0.0053837,-0.0034418,0.0068952,-0.0033105,-0.0019508
2.5879,-0.37919,-0.014294,-0.016461,0.0031728,0.0035388,-0.029735,0.0066138,-0.0012465,0.0077929
2.5977,-0.02147,-0.0098191,-0.019118,-0.0052454,-0.0050075,0.030433,0.006997,-0.007664,-0.0072031
2.6074,0.014584,-0.0065335,-0.0057605,-0.00047129,-3.8033e-05,-0.0048292,-0.00013359,-0.0027538,-0.00031062
2.6172,0.013869,-0.0049646,-0.0013588,0.0031917,0.0040843,-0.00085318,-9.5008e-05,-0.0015301,0.001028
2.627,0.025434,0.0036871,0.0020858,-8.2137e-06,9.5598e-05,0.002847,0.0017346,0.0035997,0.0009615
2.6367,0.020205,0.0011599,0.0036564,-0.001891,-0.0012218,0.002636,0.0024748,0.0026559,0.0014664
2.6465,0.017719,-0.0019695,-0.0020078,0.00018631,0.0010883,0.00056074,0.0016743,0.00053267,0.0013793
2.6563,0.010049,-0.0046302,-0.003259,0.001331,0.00077026,-0.001886,-0.0038847,-0.0026228,-0.00067751
2.666,0.018061,0.0029361,-0.0013343,0.0014229,0.00057591,0.0020666,0.0042502,0.0029007,0.00092187
2.6758,0.025263,-0.0032287,-0.0022769,0.0010872,0.001406,0.0014305,0.0011749,0.0008729,0.0021167
2.6855,0.038599,0.0041907,0.003665,-0.0050078,-0.0058648,0.0027042,0.0030557,0.0014029,-0.0017523
2.6953,0.02244,0.00049214,0.0056659,-0.00073847,0.00041352,-0.00072943,-0.0038859,-0.0012423,-0.00072611
2.7051,0.0007314,0.0051963,0.0047374,0.0013273,0.0012824,0.0010662,-0.0014172,0.0014482,0.0018303
2.7148,-0.010109,0.0043495,0.0047956,-1.572e-05,0.0003792,0.0033248,0.0010411,0.0041874,0.0020035
2.7246,-0.012688,-0.0015046,-0.0039577,-0.0006617,-0.00086084,-0.0011001,0.001121,-0.00035825,-0.0011269
2.7344,-0.005011,-0.0099006,-0.012481,0.0023094,0.0015557,-0.002194,-0.0030783,-0.0058577,-0.0010979
2.7441,0.022735,-0.00029422,-0.0017685,-0.0003711,-0.00034331,-0.0015202,0.0014716,-0.0024335,-0.0011011
2.7539,0.049304,0.00027532,0.00036387,2.1393e-05,0.00087488,-0.00054056,0.0023133,-9.0047e-06,-0.00179
2.7637,0.064259,-0.0032442,-0.002088,-0.0030368,-0.0024601,-0.0030556,0.00057259,-0.0022359,-0.0020253
2.7734,0.090248,-0.0015946,0.0035548,-0.0020433,-0.0019878,0.00059117,0.0041217,0.0020419,-0.0012344
2.7832,0.09885,-0.0050849,-0.0022693,0.00068865,-4.495e-05,-0.00089374,0.00084029,-0.00065276,-0.00092671
2.793,0.11319,-0.0033378,0.0043016,-0.00043877,0.00053142,0.0020554,0.0038455,0.0039348,0.00081938
2.8027,0.10456,-0.0062013,-0.00054862,0.0021821,0.0013467,-0.00088817,-0.0012801,-0.0018674,0.0019172
2.8125,0.096224,-0.0062971,0.00032451,0.0023972,0.0029307,-0.00076901,-0.0024333,-0.0013253,0.0020289
2.8223,0.079176,0.00014317,0.0059395,0.00095265,0.0012738,-0.00090259,-0.0032475,-0.001576,-0.0006996
2.832,0.059031,0.0077298,0.011874,0.0017761,0.00069989,0.00065904,-0.002401,0.0021633,0.00060776
2.8418,0.015735,0.00028831,0.0036126,-5.4268e-05,-0.00025956,-0.0032682,-0.0070877,-0.0030427,-0.0020373
2.8516,-0.0034841,0.0093099,0.0084468,-0.00026713,-0.0016744,0.0024679,-0.001375,0.002584,0.0020965
2.8613,-0.038179,-0.00055801,0.0010323,0.0015349,0.0020052,-0.0031149,-0.0050982,-0.0027937,0.00018553
2.8711,-0.047923,0.0040727,0.002264,-0.0011576,-0.0016859,-0.00072376,-0.0026046,-0.0010074,-0.0013713
2.8809,-0.056748,0.0046559,0.0022886,0.0024558,0.0025005,0.0012039,0.00049825,0.0017858,0.0027525
2.8906,-0.059439,-0.0010577,-0.003512,0.0045082,0.0050844,-0.0010727,-0.0008712,-0.0010966,-0.00029851
2.9004,-0.056501,0.00090972,-0.0016741,-0.00073599,-7.2294e-05,0.0005386,0.00057882,0.0002857,0.0012092
2.9102,-0.048007,0.0058237,0.0022582,0.0014439,0.00099302,0.00068059,0.0021028,0.0010699,0.0015633
2.9199,-0.045696,0.0043025,-0.00019944,-0.0010076,-0.0018434,-0.0011105,-0.00084198,-0.0015162,-0.0019725
2.9297,-0.034419,0.007414,0.0027451,-0.00318,-0.0033335,0.0017709,0.003432,0.0032144,4.6024e-05
2.9395,-0.03412,-0.026618,-0.025244,-0.00016756,-0.00059484,-0.0014817,0.00099966,-0.0019771,-0.0014079
2.9492,-0.025605,-0.022645,-0.020856,-0.00091673,-0.0016077,-0.00050804,0.00026175,-0.0014053,-0.00085523
2.959,-0.018568,-0.017068,-0.015172,0.00055217,0.00078284,-0.00059478,-0.00012506,-0.0011089,-0.0012925
2.9688,-0.0098014,-0.010069,-0.010079,0.0026971,0.0027531,0.00038951,0.00073373,0.00073104,0.0020802
2.9785,-0.013817,-0.011659,-0.012638,-0.00037458,-9.5235e-05,-0.00268,-0.0014145,-0.0028048,-0.0016306
2.9883,-0.0056926,-0.0048242,-0.005581,0.00061419,0.00080846,-0.0004317,-7.835e-05,-0.001158,0.00052654
2.998,-0.0054241,0.0014398,0.0037753,0.0021556,0.0026076,-0.00039574,-9.6055e-05,-0.0014219,0.0015391
3.0078,0.0055248,0.011061,0.010489,0.0009934,0.0020874,0.0022942,0.0012517,0.0033652,0.00094409
3.0176,-0.0040411,0.003891,0.002436,-0.0013211,-0.0019813,-0.0006236,-0.0012373,-0.0015181,-0.0011304
3.0273,-0.0051183,0.0043974,0.003873,0.0017305,0.0012309,-0.0034019,-0.0024604,-0.0033995,-0.0026595
3.0371,-0.0097828,0.0034979,0.0037029,-0.0002236,-0.0002681,-0.0026975,-0.002198,-0.0051559,-0.0022134
3.0469,-0.0010173,0.0068195,0.0089621,-0.0018118,-0.001833,0.003416,0.002048,0.0021065,0.0022807
3.0566,-0.0067138,0.0062472,0.0063399,0.00044743,0.00095745,2.8047e-05,0.00017902,0.00063547,0.00075651
3.0664,-0.0077478,-0.00034554,0.0014212,-0.0016149,-0.0027261,-0.00073184,-0.00053423,-0.00094691,-0.0012378
3.0762,-0.00079146,-0.0019632,-0.0030911,-0.0010044,-0.00089885,-0.00055993,-3.1445e-05,-0.001219,-0.0013228
3.0859,0.010341,-0.0030644,-0.0014437,-0.0020746,-0.0030513,-0.001648,-0.0012123,-0.002731,-0.0016596
3.0957,0.029033,0.00068779,0.0012501,0.0014556,0.0019964,0.00074761,0.00068481,0.0004853,0.0011116
3.1055,0.05186,0.0099069,0.0081987,-0.001146,-0.0018877,0.0047241,0.00013098,0.0053751,0.00058038
3.1152,0.049832,-0.0036016,-0.0020962,0.0012391,0.0023933,0.00024031,0.00090035,-0.00081806,0.0016426
3.125,0.046316,-0.001559,-0.0027221,4.9065e-05,-0.00018744,-0.00051401,-0.00089135,-0.0013784,-0.001921
3.1348,0.028756,-0.0038244,-0.0069689,-0.0024331,-0.0005939,-0.00022178,-0.0013981,-0.00074286,-0.0017529
3.1445,0.004842,-0.0041395,-0.0072649,0.0016808,0.0014412,0.001285,-0.00064786,0.0015371,0.0013126
3.1543,-0.024279,-0.002291,-0.0034687,0.00050349,0.00095536,0.0011971,-0.00027878,0.0017613,0.0016734
3.1641,-0.035323,-0.006292,-0.0047975,-0.0027326,-0.0022178,-0.0025434,-0.00066638,-0.0035774,-0.0014938
3.1738,-0.0071206,-0.00083644,0.0010143,-0.00012522,-0.0019639,0.0046628,-9.1166e-05,-0.00027511,-0.00071742
3.1836,0.0094967,0.0014367,0.0012603,0.00042656,1.1176e-06,0.0040016,0.0015355,0.001951,0.00063785
3.1934,0.010295,0.0015788,-0.00054487,0.0019077,0.0016899,0.0024278,0.0013196,0.00241,0.0016466
3.2031,0.0082442,-0.0030949,-0.002992,0.0014816,0.0006881,-0.00034692,0.00071983,-7.9583e-05,0.0013706
3.2129,0.0066781,-0.0044051,-0.0064374,7.2286e-05,0.0013771,-0.0013535,-0.0017773,-0.00083678,-0.0020058
3.2227,0.0071569,-0.0076253,-0.006216,-3.4364e-05,-0.0014896,-0.00044431,0.00059137,-0.00045969,0.00054903
3.2324,0.013408,-0.0050084,-0.0089125,-0.0010923,-0.0010419,0.0017976,0.000618,0.0027004,0.0022408
3.2422,0.012317,-0.0057769,-0.0025388,-0.00027435,-0.00060888,-0.0010136,-0.00016417,-0.0015868,-0.0017013
3.252,0.11927,-0.013983,0.0023555,-0.0022257,-0.002062,-0.00087056,0.0078394,-0.0051924,-0.00075992
3.2617,0.42659,-0.0042327,0.004913,0.0066483,0.0074452,0.0027745,0.016745,0.0072839,0.0029297
3.2715,0.31262,0.039875,0.020383,0.00042957,-0.0026868,-0.0082817,-0.02019,-0.0029366,-0.0050543
3.2813,-0.26856,0.028842,0.026493,-0.017136,-0.010425,0.0031115,-0.013944,0.000367,-0.0016187
3.291,-0.67228,-0.0041555,0.0048674,0.0063317,0.0093958,0.0018556,0.0054971,0.00028171,0.00088657
3.3008,-0.42453,0.0046703,0.0077384,-0.0021128,-0.0005554,0.007135,0.010738,0.0079391,0.0018341
3.3105,-0.10966,0.011459,-0.0017725,-0.0039051,-0.0043434,0.029831,0.020897,0.0012999,0.00034368
3.3203,0.032161,-0.0059971,-0.0039175,0.0016945,0.001262,0.012396,-0.0023406,0.0031098,0.0025779
3.3301,0.021239,0.0031592,0.0037501,-0.00044516,0.00044945,-0.0010636,0.00045952,0.00098347,-0.0017785
3.3398,0.019321,0.0020152,0.0023483,-0.00041148,-0.00027408,0.00035122,0.00044979,-0.001152,0.00088582
3.3496,0.021802,-0.0043114,-0.00369,-0.0014346,-0.0017571,-0.0010451,-0.00019512,-0.0023481,-0.00091325
3.3594,0.014506,-0.0014409,-0.0019384,4.7945e-05,0.0010949,-0.00096782,-0.00029522,-0.0019284,0.00088709
3.3691,0.020274,0.00018755,0.0023495,0.00017469,-0.00027535,0.0016875,0.0013869,0.0022025,0.0012406
3.3789,0.0085369,-0.0024949,-0.0021375,2.557e-05,0.00020431,-0.0010372,-0.0013403,-0.0013653,0.0015655
3.3887,0.020901,-0.0061705,-0.0056491,-0.00037096,0.000449,-0.0012456,-0.00029277,-0.0010834,-0.0018893
3.3984,0.031974,0.0018117,0.00028001,-0.00080695,-0.0023045,0.0028795,0.0044075,0.0029063,0.0011782
3.4082,0.031281,-0.0019248,0.0004459,-0.0033633,-0.0031686,0.0029335,3.7282e-05,0.0015316,-0.00034358
3.418,-0.0020303,-0.0045078,-0.0035402,0.00032753,0.00046964,-0.0036511,-0.0053146,-0.0027372,-0.0014421
3.4277,-0.0092232,-0.00051655,-0.00078887,-0.0011804,-0.001597,0.0015532,-0.0009675,0.0016598,0.00050727
3.4375,-0.021648,-0.0050777,-0.0057995,0.00085692,0.0016833,-0.0025196,-0.00088062,-0.0012375,0.00093817
3.4473,-0.0051768,-0.0067111,-0.0090872,-0.0021816,-0.0027978,0.00099011,0.0026228,-0.00038351,-0.00034265
3.457,0.013892,-1.6271e-05,0.00017903,0.0015748,0.0018034,0.0021531,0.0046082,0.0020099,0.0018166
3.4668,0.040371,0.0024203,-0.00046107,-0.0012149,-0.0014799,0.0024842,0.0059942,0.0027478,0.0032516
3.4766,0.059145,0.0033044,0.00044604,-0.0029508,-0.0034957,0.0039744,0.0057675,0.0052843,0.002085
3.4863,0.073012,-0.010231,-0.0094591,0.0051446,0.0052727,-0.0015774,0.0011035,-0.003365,0.0013903
3.4961,0.10517,0.0079285,0.0091406,0.0052607,0.0050363,0.0066195,0.010714,0.0098449,0.0044416
3.5059,0.11047,-0.003323,-0.00055425,-0.00197,-0.0013756,0.0047396,0.0058781,0.0055568,0.003288
3.5156,0.10787,-0.0041837,-0.00087937,0.0013252,0.0012434,7.4274e-05,0.00030795,0.00071281,0.0016206
3.5254,0.10397,-0.0046542,-0.002932,0.0013891,0.0012616,-0.0011272,-0.0011359,-0.0017952,-0.0032977
3.5352,0.096713,0.0067145,0.011185,-0.0040718,-0.0041607,0.0051277,0.0025268,0.0053472,0.0041841
3.5449,0.071458,0.0083183,0.012074,0.0011006,0.0010637,0.0048461,0.00048066,0.0038142,0.0016389
3.5547,0.034322,0.0045424,0.00986,0.0011936,0.0011494,0.0020154,-0.0029884,0.0019788,0.0048178
3.5645,0.0049883,0.0065023,0.010561,-0.003335,-0.0036628,0.0032135,-0.0018412,0.0026804,0.00013946
3.5742,-0.029096,-0.00044684,0.00037074,0.0012069,0.0012954,-0.0010036,-0.0053667,-0.0023653,-0.0011447
3.584,-0.040828,0.0048538,0.0070529,0.0031441,0.0031766,0.002796,-0.001068,0.0034089,-0.001252
3.5938,-0.058979,8.0949e-05,-0.0019344,1.8786e-05,0.00033968,-0.00042218,-0.0029865,0.00030128,-0.00071263
3.6035,-0.055355,0.0040297,0.0035403,0.0032242,0.004139,0.0034754,0.0039956,0.0056455,0.0022536
3.6133,-0.06112,-0.0020458,-0.0023076,0.0039665,0.0035114,-0.0024498,-0.0011787,-0.0031159,-0.00030362
3.623,-0.060679,-0.0029239,-0.0069115,-0.0032248,-0.0039681,-0.0036205,-0.0058554,-0.0065852,-0.0014579
3.6328,-0.050228,-0.00043904,-0.0015831,0.00036601,-0.00029249,0.0013149,0.0016945,0.0018017,0.0015545
3.6426,-0.043031,-0.00066884,-0.00029837,-0.005004,-0.0042352,-0.0009999,0.0019396,0.0041718,-0.0035913
3.6523,-0.031679,0.0042249,-0.031679,0.0045619,-0.002025,0.00029274,0.0039436,0.0018272,0.0011577
3.6621,-0.010479,-0.0027397,-0.0022306,-0.0088981,-0.0079802,0.0081999,0.0063105,0.0095106,0.0022193
3.6719,-0.014277,-0.0081506,-0.0080872,0.0026127,0.0027191,-0.0017796,-0.0015848,0.00045347,0.00065499
3.6816,-0.0091427,-0.0079074,-0.0084127,0.0051993,0.0042813,-0.0010158,-0.00073506,-0.00046893,-0.0048245
3.6914,0.00016577,0.0010594,0.0014923,0.0038419,0.002678,-0.0012778,-0.00072673,-0.0018187,-0.0012961
3.7012,-0.0041699,-0.0057209,-0.0057889,-0.0021016,-0.0015536,-0.0042396,-0.00037486,-0.0052363,-0.0022399
3.7109,0.0029089,0.0032765,0.0046937,0.0017212,0.0024343,0.00060557,0.00019617,0.00065136,-0.0021884
3.7207,0.0057332,0.0071842,0.0073246,0.0015644,0.0020539,-0.001342,-0.0013326,-0.00094173,-0.0028082
3.7305,0.010077,0.015422,0.016252,-0.0039785,-0.0046707,-0.00068198,-0.00047711,0.004513,0.00075356
3.7402,0.0054031,0.010969,0.01256,-0.005695,-0.0066578,0.004576,0.00083366,0.0058777,-0.0036051
3.75,-0.0025704,0.00654,0.0066757,-0.0025049,-0.0027604,-0.00054271,-0.0010831,-0.0010742,-0.0009828
3.7598,-0.0040561,0.0045273,0.0051568,0.0084512,0.0085672,0.0023518,0.00013255,0.0018355,0.0022761
3.7695,-0.0051233,0.0063813,0.0076495,-0.0020334,-0.0019541,0.0022727,0.002087,0.004462,-0.0022829
3.7793,-0.0017496,0.0050251,0.010962,0.0010751,0.0016631,0.0035272,0.00096143,0.0047067,0.002155
3.7891,-0.0096759,0.004237,0.0031776,-0.0061611,-0.0074601,0.0011989,0.00065725,0.0025527,-0.0012448
3.7988,-0.0080394,-0.0040628,-0.0038991,-0.0062421,-0.0062155,-0.0024666,0.00025981,-0.00085335,-0.002218
3.8086,0.0053528,0.00087403,-0.0001158,-0.0079424,-0.0067361,-0.0045911,-0.0028057,-0.0014638,-0.003751
3.8184,0.018066,0.0028731,-0.0013499,-0.00070862,-0.0007566,0.00074756,0.0013192,0.0017274,-0.0022153
3.8281,0.039194,0.013128,0.0088033,0.0051973,0.0047262,0.0042033,0.0046067,0.0042663,0.0049415
3.8379,0.044677,0.0042139,-0.00097055,0.0023449,0.0024377,-0.002594,0.00023827,-0.0018955,-0.0073808
3.8477,0.053807,0.0031093,-0.0023733,0.0010273,0.0001665,0.0008688,-0.00027516,0.00018571,0.00038943
3.8574,0.046742,0.0050914,0.001329,-0.0057802,-0.0058308,0.0025103,0.0015738,0.0026507,0.0045201
3.8672,0.027784,0.0021063,0.0013024,-0.0013254,-0.0006305,0.0029253,-0.0009879,0.0013709,-0.0047984
3.877,-0.013683,-0.013169,-0.0094233,-0.0018754,-0.0029056,-0.0013861,-0.0029022,-0.0003256,0.0028103
3.8867,-0.046108,-0.020457,-0.016317,-0.0017896,-0.0024282,-0.009074,-0.00098411,-0.0023346,0.0019814
3.8965,-0.018736,0.00063717,0.00073569,-0.0028577,-0.0024315,0.0061356,0.0039354,0.0047951,0.004559
3.9063,-0.013752,-0.0093951,-0.0089807,-0.0038546,-0.0044971,-0.0058931,-0.0055993,-0.0068895,-0.0044716
3.916,0.005569,-0.007327,-0.0062796,-0.0002812,0.00098631,-0.0018108,-0.00069524,-0.00084031,-0.0075838
3.9258,0.0175,0.010245,0.0098502,-0.010459,-0.0097418,0.010388,0.0027224,0.0096194,0.002892
3.9355,0.0094882,-0.0030587,-0.005107,-0.009483,-0.009159,0.0038725,0.002512,0.0041649,-0.0013819
3.9453,0.0036541,-0.0074029,-0.0070907,-0.0034718,-0.0019524,-0.0042096,-0.0044898,-0.0035837,-0.0030667
3.9551,0.01456,-0.00056751,-0.0032681,-0.0042341,-0.0041111,0.0030806,0.003957,0.0028456,0.0037554
3.9648,0.023358,0.0090188,0.011165,-0.0047458,-0.0025178,0.0068571,0.0015416,0.0069288,-0.0028466
3.9746,0.018093,-0.0025569,-0.0038343,0.0017508,0.00095566,-0.0032194,-0.0023888,-0.005915,-0.0072958
3.9844,0.20657,0.017247,-0.0028053,-0.003531,-0.0010687,0.0031753,0.012038,0.0049667,0.004497
3.9941,0.44465,0.016228,0.01378,0.00093956,-0.00020354,-0.0010694,0.0052057,0.0025594,-0.0029792
4.0039,0.1441,-0.015348,-0.00024722,-0.0025031,-0.00022173,-0.0022764,-0.023482,-0.0085203,-0.0067075
4.0137,-0.42941,-0.053019,-0.046781,0.01517,0.010798,0.0016588,-0.033004,-0.0041989,-0.0072181
4.0234,-0.58878,0.0092082,0.00951,0.0071795,0.0061038,-0.0039193,-0.0019906,-0.0080052,-0.0073375
4.0332,-0.37344,0.0022542,0.0049525,0.0071933,0.0062764,-0.0087987,0.0078599,-0.0030477,-0.0070673
4.043,-0.037477,0.016452,0.027628,0.0057543,0.0035878,0.042749,0.017931,0.0061068,0.0062092
4.0527,0.014261,-0.010362,-0.014146,-0.0025211,-0.0016993,0.0011404,-0.00087055,0.00041426,0.0007371
4.0625,0.013983,-0.0017557,-0.0012447,0.00067856,0.00074135,0.0032958,0.0020276,0.0059214,0.0018168
4.0723,0.023439,0.0080081,0.0084272,-0.0006199,-0.00037929,0.0096757,0.0071686,0.011918,0.0026151
4.082,0.020941,0.00021054,-0.00093971,0.0015909,0.0010562,0.0069042,0.0065388,0.0064103,0.0052081
4.0918,0.0037521,-0.010777,-0.010439,0.0031652,0.0041591,-0.0074615,-0.0059999,-0.0094448,-0.0025267
4.1016,0.016672,0.00082958,0.0010513,-0.0023433,-0.0026209,0.0072492,0.0037173,0.0062428,0.0056715
4.1113,0.021501,0.011654,0.012179,0.0050799,0.0051297,0.0051893,0.0079276,0.0063073,0.0077638
4.1211,0.028254,0.0020977,0.0053116,0.00044271,0.00090546,-0.00052143,0.00054133,0.00028114,-0.0056654
4.1309,0.039409,0.0095199,0.011867,0.0040241,0.0027921,0.0067461,0.0048587,0.004091,0.0036423
4.1406,0.027066,0.0016487,-0.00014937,0.00086133,0.0010473,0.0023947,-0.0011504,0.0017348,-0.0016411
4.1504,0.010564,0.00998,0.0087069,1.9474e-05,6.3525e-05,0.0081391,0.0052755,0.0081686,0.0035064
4.1602,-0.0069824,0.0019387,5.6754e-05,-0.0038527,-0.0042939,0.00034474,-0.0016602,-0.0005935,0.0043724
4.1699,-0.015448,-0.00075143,-0.0016151,0.00052038,0.001277,-0.0053907,0.00044122,-0.0028068,0.0040245
4.1797,0.02159,0.01648,0.01827,-0.0030608,-0.0036502,0.011644,0.012869,0.01485,0.0027679
4.1895,0.028649,0.012708,0.016679,-0.0006842,-0.00059455,0.0056194,0.0074947,0.0059116,0.0022301
4.1992,0.032073,-0.0073011,-0.0030621,0.0019327,0.0017607,-0.0048918,-0.00099684,-0.0050744,0.00087225
4.209,0.056365,0.00013073,0.0057378,0.001945,0.0013519,-0.0010381,0.0033903,-7.1084e-05,0.0024947
4.2188,0.078584,0.00033716,0.0073998,-0.003758,-0.0036434,0.0029206,0.007233,0.0070434,0.0021699
4.2285,0.068131,-0.024751,-0.015225,0.0021526,0.0019212,-0.014234,-0.009304,-0.015084,-0.0028299
4.2383,0.093352,-0.010792,-0.0024507,0.00092576,0.0014914,0.00012473,0.0011467,0.00015736,-0.0050064
4.248,0.086585,-0.01677,-0.0076838,0.0034664,0.0033529,-0.0060593,-0.0034253,-0.0047492,-0.0069515
4.2578,0.082268,-0.015254,-0.010143,0.0052695,0.0051634,-0.0043579,-0.0043975,-0.004318,-0.0060598
4.2676,0.079872,0.0025747,0.0058631,-0.001588,-0.0015249,0.0036457,0.0053221,0.0067049,0.0047645
4.2773,0.054708,0.00017629,0.003203,0.00082333,0.00066175,0.0017317,-0.0021564,-0.0006759,7.0585e-05
4.2871,0.022402,0.0017664,0.00079449,-0.0035586,-0.0034508,0.0027608,-0.0020265,0.001241,0.0056561
4.2969,0.0069696,0.012262,0.011793,-0.0057566,-0.0063016,0.0081658,0.0049091,0.0091633,0.0045212
4.3066,-0.025353,0.0045804,-0.00028811,0.0013311,0.0012307,-0.00054116,-0.0035716,-0.00070288,0.001267
4.3164,-0.038036,0.0059446,0.0029758,0.0029801,0.0030491,0.0043795,0.0010098,0.0038992,0.0032204
4.3262,-0.059399,-0.0058741,-0.0099324,-0.0041458,-0.0039434,-0.01025,-0.0088534,-0.0070323,-0.0055059
4.3359,-0.049682,0.0052635,0.0014362,0.0064052,0.0070368,0.00083973,0.0031034,0.0011364,0.0044367
4.3457,-0.051471,0.0035899,-0.0003439,-0.0016387,-0.0019779,-0.0010483,-0.003097,-0.00092246,-0.0066083
4.3555,-0.038908,0.010739,0.0075833,-0.0057125,-0.0066559,0.0056422,0.0057408,0.0052235,0.0059606
4.3652,-0.048565,-0.0032838,-0.0060593,-0.0035962,-0.0040217,-0.0033951,0.0019713,0.0015832,0.0013106
4.375,-0.033114,0.0078374,0.0038547,-0.0079384,-0.0072052,0.0039606,0.0043125,0.0050912,-0.0031617
4.3848,-0.029121,0.0059377,0.010107,-0.0026092,-0.0014647,-0.0025196,0.0021785,-0.001733,0.002557
4.3945,-0.016199,-0.0065223,-0.0053715,0.00049884,5.4698e-05,0.0013705,0.00019987,0.001763,-0.0034156
4.4043,-0.016859,-0.010101,-0.0092975,0.00058173,0.00079104,-0.0025588,-0.0018502,-0.0011785,-0.0021663
4.4141,-0.0027597,0.00025305,0.00061133,0.0034131,0.0032416,0.0018045,-8.6063e-05,0.00014002,-0.0037067
4.4238,0.0052794,0.0067699,0.0069471,0.0032841,0.0026811,0.0024551,0.00055846,0.0016624,0.0013791
4.4336,0.0021454,0.0019901,0.0019716,-0.0021076,-0.0025921,-0.001573,-0.00070631,-0.0010694,-0.0027734
4.4434,0.00098657,0.0028267,0.0030455,0.0034969,0.003794,-0.0012821,-0.00067965,-0.0039609,0.0025451
4.4531,0.0046515,0.0048573,0.0048817,0.0053628,0.0053524,0.00022848,-0.0029955,-0.0025988,-0.0033811
4.4629,-0.010317,-0.0045083,-0.0038176,0.0082069,0.006599,-0.0042626,-0.0015073,-0.0046746,0.0044776
4.4727,-0.00027089,0.0040243,0.004535,-0.00014005,-0.00080977,-0.0019733,-0.0031377,-0.0040365,-0.0027251
4.4824,0.0024254,0.0087888,0.0095456,0.0052508,0.0069287,0.0019222,0.0014005,0.0039898,-0.0011078
4.4922,0.010094,0.017649,0.018547,-0.0024936,-0.0025951,0.0068512,0.0016499,0.0083619,0.0020054
4.502,-0.013309,-0.0022317,-0.00091441,0.006365,0.0067254,-0.004755,-0.001626,-0.0036401,0.0032578
4.5117,-0.02135,-0.01456,-0.013753,-0.00015261,-0.00024543,-0.014949,-0.0063201,-0.016215,-0.0066362
4.5215,-0.010413,0.0001818,0.0014418,-0.0082711,-0.0086111,-0.0017999,-0.0024951,-0.0018148,-0.0058805
4.5313,-0.0069044,-0.00041376,0.00035812,0.001454,0.002815,0.00051041,-0.00019281,0.0017743,-0.0045748
4.541,0.0077314,0.0070259,0.006942,-0.0023975,-0.0020414,0.0038697,0.0017458,0.0048083,-0.0086766
4.5508,0.01465,0.003803,0.002513,-0.0035039,-0.0038954,0.00023733,0.0034485,0.0017408,0.0072835
4.5605,0.025414,0.0017494,-0.0010649,0.00092159,-1.1521e-05,0.00048417,0.0012745,0.00026152,0.0017621
4.5703,0.039845,0.0049354,0.00078387,-0.0016378,-0.0016797,0.0032181,0.0038345,0.0010589,-0.0012361
4.5801,0.032044,-0.0123,-0.017573,0.0025683,0.0028167,-0.013271,-0.0073486,-0.014714,-0.0046954
4.5898,0.045633,0.0050138,0.00018317,-0.0069194,-0.0072795,0.0034212,0.00059715,0.0017153,-0.0037924
4.5996,0.01643,-0.011163,-0.014444,-0.003341,-0.0026669,-0.011099,-0.0068915,-0.010547,-0.0067941
4.6094,0.0023964,-0.005694,-0.0066561,0.0057068,0.006312,-6.5854e-05,-0.0012191,0.0028275,-0.0014899
4.6191,-0.027274,-0.0089322,-0.006751,-0.0044114,-0.0038201,-0.0025222,-0.002322,0.0020719,-0.0046452
4.6289,-0.03236,-0.008129,-0.0052473,-0.0071897,-0.0060198,-0.0040429,0.0013717,-0.0026473,-0.0027597
4.6387,-0.0072391,-0.0017702,-0.0011199,-0.0034155,-0.0027751,0.0054197,0.0041468,0.0050293,0.00085921
4.6484,0.0063673,2.4353e-05,-0.00072997,0.010307,0.011355,0.0055385,0.003376,0.0049281,0.0076363
4.6582,0.0059221,-0.0016113,-0.0025072,0.00013689,-0.00065069,0.00094402,-0.001315,0.00045592,0.0035348
4.668,0.0029534,-0.0062946,-0.0073944,0.00048944,0.00071811,-0.001564,0.0010632,-0.0010272,0.0009408
4.6777,0.0061555,-0.0033779,-0.0045116,0.0035973,0.0035275,-0.0018893,-0.0034267,-0.00084735,-0.004606
4.6875,0.036433,0.024063,0.022592,-0.0082375,-0.0077967,0.02499,0.012556,0.0056809,0.01067
4.6973,0.016168,0.00030811,-0.001578,-0.0073626,-0.0060021,0.0025064,-0.003067,0.0008874,-0.0012021
4.707,0.013874,-0.0015807,-0.0016664,-0.0045232,-0.0042023,-0.0032746,-0.0023919,-0.0050648,-0.0038523
4.7168,0.13015,0.019337,0.018722,0.0007059,-9.6177e-05,0.00081622,0.0095862,0.00063891,-0.0024471
4.7266,0.37048,0.01121,0.0092174,-0.0008596,-0.0004804,0.0016132,0.011309,0.0057804,0.0036335
4.7363,0.23024,-0.00057059,-0.0018505,-0.0037305,-0.0055654,-0.0030932,-0.02092,-0.003024,-0.002574
4.7461,-0.22393,0.02154,0.022902,-0.001869,0.0029396,0.00028778,-0.011351,0.013168,0.0049952
4.7559,-0.54466,0.014347,0.017447,0.0010602,0.0036437,0.0011847,0.00090686,-0.0012639,-0.0080978
4.7656,-0.36724,-0.0055197,-0.0035138,-0.00042855,0.00067943,0.019648,0.017509,0.0092565,0.009841
4.7754,-0.12695,-0.021892,-0.021309,0.0049039,0.0059415,0.003904,0.020347,0.0098706,0.0039267
4.7852,0.042084,0.0097725,0.0095933,0.0049668,0.0036596,0.024766,0.0031766,0.0090869,0.004405
4.7949,0.0095585,-0.0049879,-0.0050686,0.014242,0.015343,-0.00083017,0.0026642,0.0026755,0.0063869
4.8047,0.014312,-0.00015166,-0.00023187,-0.0040501,-0.0041472,-0.0031266,-0.0011804,-0.0038906,-0.0043659
4.8145,0.013103,-0.0091041,-0.0078141,-0.0062901,-0.0062305,-0.0036071,-0.0038577,-0.0010246,-0.0054709
4.8242,0.00083834,-0.012285,-0.011523,0.011965,0.012781,-0.011748,-0.0056044,-0.0061634,-0.0053596
4.834,0.018287,0.0016394,0.0026064,-0.00019731,0.00095097,-0.00046309,0.0013725,0.0010727,0.0070752
4.8438,0.01234,0.0035375,0.0040488,0.0051835,0.0043726,-0.0043573,0.0040345,0.004403,0.0050912
4.8535,0.017203,-0.0053872,-0.0040749,0.005606,0.0057697,-0.0015552,0.00013297,-0.00096159,0.0048722
4.8633,0.024238,-0.0012111,0.00026724,0.00092505,0.0013929,-5.9822e-05,0.00090825,-0.00073749,-0.0051784
4.873,0.009172,-0.018598,-0.016985,0.0015363,0.0015393,-0.011579,-0.01235,-0.014995,-0.0034153
4.8828,0.015563,0.01327,0.013403,0.00097685,0.00012989,0.011011,0.0047941,0.0082846,0.0037379
4.8926,-0.0011839,0.0060233,0.0056046,-0.0036707,-0.003974,0.0037675,0.0032153,0.004005,0.004528
4.9023,-0.017325,-0.0035028,-0.0043057,0.0068542,0.0071374,-0.0088237,-0.0089083,-0.0075456,-0.0044017
4.9121,-0.00048993,-0.0017065,-0.0016359,-0.002259,-0.0021043,0.00013961,0.001989,0.0024462,-0.0035438
4.9219,0.012082,0.00014038,0.00083403,9.9806e-05,0.0011164,-0.001294,0.0011036,-0.0011544,0.001265
4.9316,0.026945,-0.0048515,-0.0030045,0.0025157,0.0022367,-0.0051405,-0.00050317,-0.0049702,0.0076484
4.9414,0.055662,0.0090719,0.011778,0.0030664,0.0032123,0.0095052,0.0088964,0.0089106,0.011063
4.9512,0.068378,-0.0013222,0.0027266,-0.0032967,-0.0038209,0.0023531,0.0026984,0.0010589,3.9857e-05
4.9609,0.074571,-0.0060767,-0.001392,0.0053055,0.0060629,-0.0016112,0.0020174,-0.00094556,0.0037918
4.9707,0.091598,-0.0031344,0.0023685,-0.014972,-0.015533,0.0004247,0.0010735,-0.00097327,-0.0037227
4.9805,0.094259,0.00074944,0.0061813,0.0008457,-9.0406e-05,0.002663,0.0019841,0.0037938,-0.0028402
4.9902,0.088929,-0.0013293,0.0039137,0.0060721,0.0063387,0.0059194,0.0055624,0.0074895,0.0051605
5,0.083506,0.0085854,0.012937,-0.0068537,-0.0059579,0.014773,0.011872,0.010948,0.0045397
5.0098,0.044719,-0.0080536,-0.0049881,-0.0014286,-0.0012525,-0.0031315,-0.0071228,-0.0046006,-0.0017838
5.0195,0.014079,-0.010812,-0.0093664,-0.0033377,-0.0028659,-0.0036516,-0.0073081,-0.0039765,-0.0029695
5.0293,0.018302,0.019351,0.01929,-0.0004226,-0.00010376,0.018455,0.015027,0.019513,0.0046343
5.0391,0.0053706,0.028761,0.027403,-0.0036849,-0.003174,0.021719,0.013161,0.010986,-0.0026254
5.0488,-0.041826,-0.00427,-0.0064516,-0.0097218,-0.0095612,-0.0054421,-0.0060004,-0.0029227,-0.0059391
5.0586,-0.043644,0.0056157,0.0027543,-0.0033601,-0.0034366,0.0023525,0.00082238,0.0027655,-0.003246
5.0684,-0.044308,0.0054472,0.002557,0.0027873,0.0029454,0.0022631,0.0039632,0.0018743,0.003171
5.0781,-0.058057,-0.0092883,-0.012121,-0.0073338,-0.0072588,-0.012422,-0.011262,-0.0057161,-0.0046446
5.0879,-0.04016,0.0078742,0.005084,0.0054652,0.0057987,0.0052379,0.002289,0.00508,-0.00473
5.0977,-0.040237,0.0010995,-0.0013017,-0.0037136,-0.0032564,0.0012444,-0.0016694,-8.6949e-05,-0.0081999
5.1074,-0.017361,0.017271,0.015259,-0.014972,-0.015139,0.013871,0.011993,0.0084175,0.0094687
5.1172,-0.017348,-0.0099941,-0.0094006,-0.0058026,-0.0059511,0.01059,0.0075504,0.011361,0.0033922
5.127,-0.013947,-0.010476,-0.011803,7.4493e-05,0.00091896,0.0060128,0.0022339,0.0051889,-0.0027048
5.1367,-0.013505,-0.011722,-0.013567,0.0065017,0.0064841,0.00097382,0.0041651,0.00065128,0.0025187
5.1465,0.019093,0.019015,0.018781,-0.0032762,-0.0037817,0.02317,0.012348,0.010603,0.0064593
5.1563,-0.0070347,-0.0053313,-0.0065699,0.0024779,0.0017457,-0.0063795,-0.003716,-0.0068668,-0.0029333
5.166,-0.0062961,-0.0059463,-0.0048928,-0.003226,-0.0033718,-0.003581,-0.0022258,-0.0037634,-0.0020634
5.1758,0.010232,0.015258,0.014439,-0.0059311,-0.0053979,0.0035485,-0.001537,0.006374,-0.0028045
5.1855,0.0077491,0.011617,0.0093517,-0.0045329,-0.0052802,0.0024425,0.00024051,0.0030395,-0.002883
5.1953,-0.0010048,0.0045682,0.0064485,0.0066984,0.00674,-0.00021684,0.00081867,0.00032216,0.004256
5.2051,0.0021385,0.0092992,0.0097592,0.0014705,0.0015879,0.0032613,0.0020506,0.0038196,0.0012342
5.2148,0.0086012,0.018656,0.018579,-0.0022059,-0.0023557,0.0087937,0.0055386,0.0092462,0.0030038
5.2246,-0.0095756,-0.0035601,-0.0037283,-0.0022024,-0.0016139,-0.010048,-0.0066588,-0.011155,-0.0082551
5.2344,-0.018296,-0.0078616,-0.0077951,0.0074734,0.0077557,-0.01221,-0.0050252,-0.0081744,-0.0041473
5.2441,0.0098624,0.015312,0.014903,0.0024566,0.0028457,0.0077838,0.0014971,0.0066241,0.00098659
5.2539,0.010803,0.0099667,0.0084507,0.0090532,0.0080273,0.0053394,0.0050568,0.0074599,0.0039852
5.2637,0.030161,0.020099,0.018483,-0.003807,-0.0034552,0.010578,0.0064818,0.011552,0.0073088
5.2734,0.027038,0.0046256,0.0032517,-0.002437,-0.0023497,5.3586e-05,-0.002494,-0.0041021,0.0018319
5.2832,0.022177,-0.010631,-0.013263,0.0046017,0.0043968,-0.0044356,-0.0014031,-0.0066008,0.006869
5.293,0.035577,-0.0063548,-0.010072,-0.000482,-0.00027263,-0.0070277,-0.0089011,-0.0055745,-0.013827
5.3027,0.023809,-0.01434,-0.014093,0.0095073,0.010379,-0.010368,-0.0058509,-0.013951,-0.010279
5.3125,0.034223,0.0083109,0.010214,-0.0014613,-0.0024959,0.0089839,0.0041837,0.0082154,0.0059561
5.3223,0.001894,-0.0054309,-0.0021544,-0.015613,-0.015559,0.0002949,-0.0011615,0.00045294,-0.0033552
5.332,-0.043569,-0.02548,-0.022505,0.009434,0.0099385,-0.024377,-0.012322,-0.010382,-0.0088961
5.3418,-0.038802,-0.016056,-0.018728,0.0024017,0.0014612,-0.012814,-0.0020453,-0.010007,-0.0034021
5.3516,0.010979,0.015672,0.01532,0.0061066,0.0068056,0.019076,0.011945,0.011712,0.0055091
5.3613,0.0023924,-0.0035072,-0.0069487,-0.0053456,-0.0062282,-6.8377e-05,-0.0011003,-0.0023314,0.00022571
5.3711,-0.0016896,-0.0079002,-0.0076344,0.0021579,0.0017958,-0.00084513,-0.0008348,-0.0029761,0.004531
5.3809,-0.01217,-0.021382,-0.022243,0.0025318,0.0024851,-0.01494,-0.007015,-0.0075687,-0.0086958
5.3906,0.005581,-0.002952,-0.0025647,-0.0059895,-0.0066537,-0.0013582,-0.0019867,-0.0035015,0.0039262
5.4004,-0.0024153,-0.014285,-0.014645,0.0022409,0.002954,-0.01371,-0.0065983,-0.013109,-0.0081121
5.4102,-0.0028952,-0.01742,-0.014032,0.0087663,0.0083129,-0.020846,-0.0083652,-0.0053182,-0.0096718
5.4199,0.02044,0.0061281,0.0045652,-0.0047924,-0.0040511,0.0036737,0.0012172,0.0036174,0.0036643
5.4297,0.12163,0.016455,0.00036068,0.006091,0.0052522,0.002605,0.010618,-0.0011962,0.0010861
5.4395,0.34032,0.0015281,-0.0050308,-0.0068863,-0.0066081,0.0096649,0.014463,0.0064255,0.0045559
5.4492,0.18836,-0.029382,-0.015189,-0.0034666,-0.0035004,-0.011397,-0.013864,-0.0016139,0.0037604
5.459,-0.2314,-0.0011339,0.0013078,-0.0006021,0.0031917,-0.00071747,-0.012731,0.00090666,-0.0074033
5.4688,-0.53565,-0.0070999,-0.012618,0.014253,0.016682,0.0036043,0.001278,0.0040929,-0.00053446
5.4785,-0.37073,-0.027698,-0.028627,-0.0035362,-0.0025845,0.0034583,0.009942,0.0016631,0.0048494
5.4883,-0.11128,-0.011401,-0.00062258,-0.00095965,0.0011559,-0.0095197,0.010675,-0.0056309,-0.0063657
5.498,0.054007,0.022845,0.021654,0.0026167,0.0014706,0.011419,0.0044621,0.0050631,0.012688
5.5078,0.0058641,-0.0079622,-0.0077246,0.014655,0.014425,-0.0056156,-0.0010919,-0.013485,0.0020922
5.5176,-4.876e-05,-0.013378,-0.012542,-0.0010224,-0.0015615,-0.0092851,-0.0022097,-0.0096727,-0.002685
5.5273,0.014818,-0.0060537,-0.0066,-0.0016876,-0.0015673,-0.0071399,-0.0035283,-0.0097469,-0.003954
5.5371,0.020244,0.007798,0.0088514,-0.0013392,-0.0021169,0.0040989,0.0061356,0.0071641,0.002624
5.5469,0.016411,0.00058146,-0.0014155,0.0039812,0.0036536,-0.0021382,-6.6038e-05,-0.0025497,0.0031063
5.5566,0.013138,0.0047788,0.0046287,-0.00079583,-0.00057462,-0.00047137,0.0007681,0.00083444,0.0039707
5.5664,0.028211,0.0070558,0.0079636,-0.0005206,-0.00048572,0.0012925,0.0050005,0.004841,-0.00025455
5.5762,0.025791,0.0020378,0.0004603,-0.0016734,-0.00066605,-0.00031275,0.001287,0.00052839,-0.0014844
5.5859,0.024845,-0.0017788,-0.0023953,0.00017949,0.00051511,-0.00011908,-0.0029353,-0.002121,-0.0051294
5.5957,0.0075255,0.0056874,0.0036332,0.0010733,0.0010946,0.001403,-0.00037342,0.0015425,0.0048519
5.6055,-0.0032664,0.0031336,0.0019858,-0.0011441,-0.00083216,0.0028656,-0.00023801,0.0023447,-0.0029237
5.6152,-0.027809,-0.014622,-0.013178,0.00094969,-1.949e-05,-0.016583,-0.0098401,-0.012046,-0.0014382
5.625,0.0052763,0.0039635,0.0053068,0.00073884,0.00091024,0.0011159,0.0034484,0.00077718,-0.0035204
5.6348,-0.0014412,-0.012319,-0.011571,-0.00049754,-0.00089323,-0.016355,-0.011736,-0.016565,-0.0037896
5.6445,0.030037,6.6243e-05,0.0017962,-0.0046578,-0.0040993,-0.0046614,-0.00027026,-0.0018014,-0.0019608
5.6543,0.054272,0.0099401,0.0097681,0.010841,0.010675,0.0012364,0.0064775,0.004466,-0.0026179
5.6641,0.069201,0.0034895,0.0043352,-0.0027786,-0.0025543,0.000154,0.0021568,-0.00034654,0.0017798
5.6738,0.076504,1.9627e-05,-0.0012811,-0.0014243,-0.0022581,-0.0036718,-0.0019114,-0.0024692,-0.0017322
5.6836,0.099041,0.0093675,0.0090722,0.006366,0.0060621,0.0088558,0.010677,0.010994,0.0018351
5.6934,0.096843,0.0087265,0.0065084,-0.005465,-0.0051069,0.0067168,0.0052493,0.008987,0.0018924
5.7031,0.093165,0.0077404,0.0051705,0.0018348,0.00063229,0.0070065,0.0016427,0.003176,0.0055872
5.7129,0.0736,0.0022174,-0.00195,0.0091332,0.007524,0.0047131,0.0013583,0.0049572,0.0063216
5.7227,0.046776,-0.0027535,-0.0073564,-0.0075643,-0.0079242,0.0012105,-0.0028209,0.0011873,0.0010716
5.7324,0.019848,-0.0040228,-0.0081249,-0.0066828,-0.007063,0.0027662,-0.0019396,0.0023197,-0.0064002
5.7422,-0.008284,-0.0069138,-0.010739,-0.0098799,-0.0095435,-0.0012316,-0.0050612,-0.0025656,-0.00064207
5.752,-0.032722,-0.01013,-0.01172,0.0083503,0.0082371,-0.005686,-0.0081518,-0.0069194,0.0013691
5.7617,-0.044489,-0.0085129,-0.0089608,-0.011703,-0.011522,-0.0032705,-0.0058735,-0.0043575,-0.0031591
5.7715,-0.060344,-0.013578,-0.012579,0.00086359,0.0013334,-0.0098503,-0.012457,-0.014228,-0.0031559
5.7813,-0.053072,-0.0057805,-0.0044206,-0.0053528,-0.0065521,-0.0020255,-0.0021762,-0.0016469,-0.0030817
5.791,-0.052658,-0.0060591,-0.0053375,-0.0032883,-0.002407,-0.0035141,-0.002449,-0.0043237,-0.00059284
5.8008,-0.041825,0.0038683,0.0045938,0.0023011,0.0033001,0.0017837,0.0025142,0.0022971,0.0023466
5.8105,-0.036978,0.0025961,0.0024054,0.0029225,0.0026322,0.0042699,0.0031968,0.0035601,0.0044245
5.8203,-0.030424,-0.025986,-0.024074,0.010475,0.011135,0.0083935,0.0053296,0.0077704,0.0063949
5.8301,-0.017984,-0.015547,-0.013897,0.0037035,0.004296,0.0125,0.0050927,0.013591,0.0044901
5.8398,-0.010943,-0.010809,-0.010847,0.0067418,0.0067076,0.012888,0.0068745,0.012662,0.0041183
5.8496,-0.034291,-0.031953,-0.032963,0.00089262,0.0011465,-0.010585,-0.0051766,-0.010805,-0.0032809
5.8594,-0.01262,-0.012834,-0.013119,0.0044524,0.0048391,-0.0050352,-0.0022024,-0.00083868,-0.0071667
5.8691,-0.0070624,-0.0020333,0.00011453,0.00048001,0.00080604,-0.00032556,0.0020646,0.0033223,-0.003466
5.8789,-0.0033194,0.00065897,0.00078948,-0.0057575,-0.0045907,0.0019557,0.0012695,0.0022679,0.0022356
5.8887,-0.014108,-0.0084606,-0.0089589,0.008028,0.0071078,-0.0086005,-0.0031276,-0.0096758,0.0009193
5.8984,5.1186e-05,0.0072118,0.0075051,0.0038509,0.0031375,0.0025491,0.0016633,0.0016615,0.0034337
5.9082,-0.001517,0.0090751,0.0099904,0.0035557,0.0035585,0.0014435,0.0021576,0.00025235,0.0058121
5.918,-0.021366,-0.014983,-0.012097,0.0016911,0.0015407,-0.017581,-0.010319,-0.015959,-0.007536
5.9277,0.0024093,0.01258,0.013976,0.001137,0.0012857,0.0048797,0.0032984,0.0048123,0.0082786
5.9375,-0.00072228,0.0047585,0.0070053,0.0088306,0.0077394,-0.0077629,-0.0035893,-0.0071545,-0.0056157
5.9473,0.020924,0.020103,0.018452,0.00019901,0.00028094,0.0036966,0.0020362,0.0032045,0.0043131
5.957,0.01886,0.0085648,0.0087232,0.0028086,0.001572,3.7647e-05,0.003763,0.0012412,0.0033996
5.9668,0.029213,0.0054965,0.0033307,-0.0028861,-0.0020804,-0.0018914,-0.0026135,-0.0033314,-0.0026386
5.9766,0.043578,0.0093214,0.0040178,-0.00098764,-0.001313,0.0023641,0.00032558,0.00059424,0.0035664
5.9863,0.048027,0.0035852,9.3566e-05,0.00073463,0.0012296,-0.0010649,0.00020105,-0.0021724,-0.0019363
5.9961,0.030505,-0.0092308,-0.014822,-0.00077889,-0.0010341,-0.0083573,-0.0034242,-0.0059349,-0.0029767
6.0059,0.036222,0.0090235,0.0027363,-0.0031226,-0.0017035,0.0049,0.0016926,0.0042253,0.0056563
6.0156,0.0043827,-0.0034943,-0.0066656,-0.00333,-0.0030756,-0.0045917,-0.0015265,-0.0017046,0.0016131
6.0254,-0.023852,-0.0055509,-0.0048279,0.0015887,0.001763,-0.0082502,-0.0039406,-0.0068918,-0.0072808
6.0352,-0.035836,-0.01182,-0.0070677,-0.0023282,-0.0021163,-0.010812,-0.0017367,-0.0067403,-0.0054192
6.0449,-0.0017869,0.0035028,0.0061342,-0.00075792,-0.0023401,0.0067235,0.0028221,0.0013222,-0.0059554
6.0547,0.0015445,-0.0045097,-0.0057762,-0.0050615,-0.00563,-0.0017936,-0.0017831,-0.0046969,-0.0023614
6.0645,0.0098505,0.0028426,-0.00038617,-0.00064737,-0.00011374,0.0018463,0.00041471,0.0005969,0.0024038
6.0742,-0.0021232,-0.011239,-0.011974,0.0040748,0.0033194,-0.0058608,-0.0007422,-0.0038556,-0.0049424
6.084,0.004271,-0.005048,-0.0079922,-0.00059346,0.00060768,0.00036776,6.7749e-05,0.0004405,0.0009839
6.0938,0.0076033,-0.0047559,-0.0038758,-0.0038286,-0.0047798,0.0020167,0.0020113,0.0014262,0.0023173
6.1035,0.029506,0.013807,0.0078757,-0.0070078,-0.0065784,0.014913,0.0062846,0.015524,0.0053535
6.1133,0.017474,0.002379,0.0055053,0.0020881,0.0018361,0.0047904,0.0031287,0.0062118,0.0028529
6.123,0.096291,-0.011894,0.0021201,-0.00084408,-0.00057982,0.00064422,0.0074472,-0.00062812,0.0022607
6.1328,0.34733,-0.0039185,0.007553,0.0025085,0.0029101,0.0035582,0.014132,0.0075771,0.0030332
6.1426,0.22578,-0.0018241,-0.015165,-0.0035123,-0.0065779,-0.015046,-0.018298,-0.0052957,-0.0039912
6.1523,-0.21461,0.023174,0.018682,-0.0062287,-0.0010059,0.00057201,-0.010062,0.0014608,0.00374
6.1621,-0.58054,-0.029632,-0.028473,0.0071767,0.010188,-0.00097167,-0.0032748,-0.0014241,-0.0054574
6.1719,-0.37294,-0.015492,-0.017377,0.00092582,0.0016265,0.0018551,0.012058,0.0041793,0.0024796
6.1816,-0.10347,0.0018156,-0.010738,0.0043037,0.0042731,0.002027,0.01611,0.0040427,0.0045112
6.1914,0.051427,0.018297,0.020365,-0.0026792,-0.0032609,0.0072044,0.002131,0.0051338,0.0024468
6.2012,0.015611,0.0015409,0.0018963,0.00060308,0.0010495,0.00062302,0.0023045,0.00091474,0.001413
6.2109,0.035877,0.021721,0.022362,0.00094132,0.0012556,0.013059,0.003554,0.013861,0.0020727
6.2207,0.020248,-0.0016467,-0.0017448,-0.0023261,-0.0024702,0.00022536,0.00040144,-0.00043842,-0.00057436
6.2305,-0.0019205,-0.014458,-0.016303,-0.0038074,-0.0033176,-0.010744,-0.010399,-0.012602,-0.0027313
6.2402,0.010155,-0.0066964,-0.0062463,0.0017586,0.0016026,-0.0054235,-0.0057093,-0.0067222,-0.007081
6.25,0.018135,0.0096262,0.0085853,0.0058387,0.0055351,0.0044464,0.0050474,0.0064979,0.0053989
6.2598,0.014285,-0.00751,-0.0091064,0.00041257,0.00074402,-0.005778,-0.0030974,-0.0055396,-0.0043503
6.2695,0.014496,-0.010052,-0.012921,0.0022444,0.0011338,-0.0049108,-0.0050019,-0.0067488,-0.0018718
6.2793,0.018405,-0.0084809,-0.0081897,0.00068506,0.00073577,0.0025658,0.0010627,0.0013375,-0.00067611
6.2891,-0.0088614,-0.010787,-0.010659,0.0028459,0.0028564,-0.0050408,-0.0064243,-0.0042949,-0.0033699
6.2988,-0.0040863,0.0024919,0.003177,0.003931,0.0038645,0.0048173,0.0037677,0.0073629,-0.00030636
6.3086,-0.023397,-0.0097467,-0.0093236,0.0014503,0.0022313,-0.0078895,-0.0066668,-0.0076652,-0.0032934
6.3184,0.00011302,-0.0010625,-0.002905,-0.0012603,-0.0017457,0.0020247,0.0039378,0.0027763,0.0038032
6.3281,0.014102,0.0026842,0.0021003,-0.0034216,-0.0035882,0.003963,0.0054618,0.0031808,0.0014626
6.3379,0.032772,0.0014346,-0.0032711,0.0014962,0.0012287,0.0010556,0.0041384,0.00079887,0.0028069
6.3477,0.048683,0.0026698,-0.0028563,-0.00067605,-0.001379,0.0012412,0.0028681,0.00058604,0.0010688
6.3574,0.070718,0.0019287,-0.0021531,-0.00059585,-0.00037859,0.00011794,0.0037346,0.0010846,-0.00049677
6.3672,0.085329,0.0056386,0.00025636,-0.0013005,-0.0017534,-0.00038981,0.0020199,-0.00022528,-0.0016136
6.377,0.09602,0.0023809,-0.0013174,0.0036625,0.0045648,-0.0011096,0.0016595,-0.00062626,9.8995e-05
6.3867,0.10343,0.011328,0.0070665,0.0010111,0.0011085,-0.001068,-0.0013472,-0.0016648,-0.0016394
6.3965,0.089856,0.0013089,-0.0045843,-0.0032218,-0.0034364,-0.0049224,-0.0039925,-0.0049652,-0.0018642
6.4063,0.07748,0.003426,0.0020171,0.0060528,0.0062954,0.0025219,-0.001084,0.0022362,0.0031835
6.416,0.055468,0.0032969,0.0029528,0.00077122,0.00072108,-0.00043076,-0.0025921,-0.00036357,-0.0015635
6.4258,0.022294,-0.0021827,0.00094375,-0.002992,-0.0029358,-0.0011002,-0.0055455,-0.0014585,-0.0023546
6.4355,-0.00027763,0.0009934,0.0045192,0.00076502,0.00027812,0.0051142,-2.9751e-05,0.0033618,0.00074402
6.4453,-0.028804,-0.005431,-0.0035053,-0.00018076,-0.00014497,-0.00078729,-0.0045763,-0.00034809,-0.0027452
6.4551,-0.032192,0.004392,0.0098964,0.00044914,0.00084406,0.00049668,0.0025656,0.0046311,-0.0025521
6.4648,-0.038834,0.009257,0.011688,0.0014307,0.0019248,0.0053041,0.0040455,0.0062833,0.002859
6.4746,-0.048737,0.00070041,0.0035881,-0.0025513,-0.0021393,0.0019601,0.00090485,0.0030522,0.00047903
6.4844,-0.04437,0.0033977,0.0078825,-0.0021761,-0.0021615,0.0041881,0.0031053,0.0044761,-0.0044955
6.4941,-0.04829,-0.0012037,-0.0012955,-0.0075914,-0.0087357,-0.00023993,-0.00051439,-0.00087279,-0.0028913
6.5039,-0.041406,-0.00077147,0.0019643,0.00072559,0.00039852,0.00071299,0.0010141,0.0013297,0.00019396
6.5137,-0.038432,-0.0039895,-0.0005938,0.0010555,0.0021519,-7.1354e-05,0.0009275,0.00069053,0.00025341
6.5234,-0.026254,-0.014903,-0.013725,0.0016023,0.002599,0.0021234,0.0035377,0.0026704,-0.00049105
6.5332,-0.024651,-0.019729,-0.019218,0.00046064,0.00039568,-0.0020254,-5.0854e-05,-0.0026984,-0.00333
6.543,-0.021743,-0.015175,-0.014493,0.0046317,0.0047313,-0.004368,-0.000788,-0.0048465,0.0022615
6.5527,-0.0097662,-0.0072189,-0.0069545,0.0037268,0.003669,0.001627,0.0012175,0.0028818,0.00024508
6.5625,-0.010325,-0.0086211,-0.0084442,-0.0015208,-0.00086748,0.00042913,0.00066924,0.00040749,0.003424
6.5723,0.0096226,0.0098358,0.0098579,-0.0023397,-0.0018413,0.017191,0.0043621,0.0092297,0.0019423
6.582,-0.010097,-0.0079706,-0.0077498,-0.00069798,-0.0012244,-0.001019,-0.001584,-0.0018091,0.0016342
6.5918,-0.015742,-0.012585,-0.012257,0.0013121,0.00037442,-0.0095291,-0.0050227,-0.008797,-0.0025796
6.6016,-0.0074569,-0.0033656,-0.0029408,-2.8189e-05,0.00056802,-0.0034171,-0.0026305,-0.0048611,-0.0016245
6.6113,-0.0024729,0.0032839,0.0038817,0.0038401,0.0035549,0.00082675,0.0008238,0.00062349,0.001556
6.6211,-0.0050909,0.0033926,0.0042734,0.00095373,0.00091666,-0.00069602,-0.0010704,-0.00044099,-0.0019512
6.6309,-0.0059071,0.0023272,0.0031821,-0.00073168,-0.00067628,-0.0032721,-0.001621,-0.0036351,-0.0027
6.6406,-0.010342,-0.0024129,-0.0015896,-0.0042437,-0.0032562,-0.0060457,-0.0037804,-0.0066304,-0.0027455
6.6504,-0.0083968,-0.0012194,-0.00047421,0.0019161,0.0015788,0.00050498,-0.00018382,0.00087536,-0.00067504
6.6602,0.0029234,0.0058039,0.006103,0.00049146,0.00062722,-0.0013296,-0.00086724,-0.0011326,-0.0009827
6.6699,0.011082,0.0026849,0.0018131,-0.00074167,-0.0011186,0.00042537,0.00075802,0.00089847,-0.00011493
6.6797,0.030691,0.0078082,0.0054324,-0.0023621,-0.0025192,0.0022418,0.0011992,0.0018717,-0.0011047
6.6895,0.045671,0.010631,0.0069925,0.0013342,0.0015435,0.00073218,-0.0011637,0.0021648,-0.002679
6.6992,0.045843,0.002948,-0.0015057,-0.0021639,-0.0016755,0.0010827,0.0013226,0.0001491,0.0021201
6.709,0.045792,-0.0027322,-0.0077703,-0.00093413,-0.0012341,0.0027454,0.0007648,0.0035886,0.0020683
6.7188,0.035978,0.0035645,0.00019909,0.0020826,0.0006694,-0.00074819,-0.0003049,-0.00044254,-0.00034997
6.7285,0.019747,0.0033622,0.001661,-0.00094139,-0.00080134,0.0072544,0.0040095,0.0069847,0.0022315
6.7383,-0.0099451,0.0003732,0.0014445,4.3191e-05,0.00041816,0.0012477,-0.0014436,0.001257,0.0016839
6.748,-0.040874,-0.010032,-0.0068302,0.0014715,0.0018637,-0.0044154,-0.0020121,-0.0056695,-0.0014354
6.7578,-0.004062,0.0050919,0.0060423,0.0017195,0.0011976,0.011478,0.0017966,0.0030518,0.00030167
6.7676,-0.0040459,-0.0040763,-0.0040795,0.0032185,0.004194,-0.0022815,-0.00065923,-0.0034077,-0.0026648
6.7773,0.011484,-0.00018038,-0.0013915,-0.00072338,-0.00063268,0.0013255,0.0003447,0.00074995,0.0016472
6.7871,0.00030271,-0.0042336,-0.0047046,0.001939,0.00049584,-0.0033675,-0.00099034,-0.0043556,-0.00094111
6.7969,0.0099809,-0.0021586,-0.003419,-0.0019103,-0.0013767,0.00022668,0.00051887,0.0011698,-0.0014347
6.8066,0.003188,-0.0040361,-0.0047862,-0.00015901,-0.0013405,-0.0010139,-0.00070571,-0.00086985,-0.0012694
6.8164,0.012957,-0.0051139,-0.0069902,0.00029582,0.00061941,0.00076004,-0.00011695,0.0009763,0.00024127
6.8262,0.0060192,-0.0067542,-0.0067356,-0.0052885,-0.0051047,-0.0033575,-0.0025525,-0.0053737,-0.0024455
6.8359,0.043333,-0.0020369,-0.0054853,0.0011145,0.0017534,0.00033556,0.0040402,0.0043615,0.0019447
6.8457,0.27615,0.0068977,-0.002771,0.0065246,0.006051,0.0025272,0.0088491,0.001793,0.0026054
6.8555,0.38852,-0.0016122,0.012157,-0.0019466,-0.00041032,0.0020461,-0.0014808,0.001545,0.0014504
6.8652,-0.12998,-0.040722,0.00721,-0.0058754,-0.0087861,-0.0027739,-0.031697,-0.0082408,-0.0069769
6.875,-0.59812,-0.025316,0.0010754,0.0038247,0.0046158,-0.00053925,-0.023621,-0.00041512,0.0029294
6.8848,-0.44477,0.025537,-0.0043044,-0.0061935,-0.0061416,0.0051469,0.015742,0.006108,0.0025954
6.8945,-0.23455,0.028348,-0.018434,-0.0017071,-0.0032881,-0.027511,0.013284,0.0050831,0.0039618
6.9043,0.03217,0.010864,-0.0041088,0.0023287,0.0030642,0.0073257,0.0039836,-0.0002002,-0.001676
6.9141,0.021014,0.0028993,0.0069588,-0.00067571,-0.0013395,-0.00060516,-0.00070585,-0.00045602,-0.0016422
6.9238,0.015212,0.0013972,0.0024995,-0.0013696,-2.7199e-05,-0.00062934,-0.00050266,0.00044488,-0.00094946
6.9336,0.025882,0.0055238,0.00070778,-0.0017224,-0.0010564,0.0020948,0.0018114,0.0038788,0.00010479
6.9434,0.014889,0.00014651,0.0027658,0.0028099,0.0020171,0.0029338,0.0027132,0.0013024,0.0013084
6.9531,0.012002,-0.0069571,-0.0075489,-0.00020963,-0.0011132,-0.0039235,-0.0035693,-0.006205,-0.0014609
6.9629,0.013051,0.0031923,0.0015692,-0.0021216,-0.0010401,-0.00084628,-0.0013084,-0.00030861,-0.0017824
6.9727,0.015349,-0.0030697,-0.0074447,-0.00045087,-0.00095013,-0.00048545,0.00076076,-0.00010842,-0.00086433
6.9824,0.017519,-0.0074572,-0.011733,0.00079919,0.00023548,-0.0031842,-0.0027612,-0.0041992,0.00024783
6.9922,0.022649,-0.007361,-0.010213,-0.001112,-0.00055774,0.00077812,0.00071651,0.00068383,0.0013515
7.002,0.0056393,-0.0066849,-0.0031859,-0.0021151,-0.0012066,-0.00064945,-0.0032386,-0.0011005,-0.0018113
7.0117,-0.022088,-0.016835,-0.017457,0.0032329,0.0033727,-0.0065824,-0.0081786,-0.0079504,-0.0030482
7.0215,-0.018404,-0.0056147,-0.00092661,0.0041273,0.0036218,-0.00039196,-0.00039523,-0.0006838,0.0027106
7.0313,-0.0097264,-0.0017957,-0.0060944,-0.0017501,-0.0014845,-0.0016846,-0.00021782,-0.0029164,-0.0015112
7.041,0.01176,0.0040646,0.0026345,-0.0030766,-0.004033,0.0021638,0.0037302,0.0020786,0.0011647
7.0508,0.029251,0.0056625,-0.0025328,0.00080873,0.0011243,-0.00010375,0.0031975,0.00098032,-0.00064438
7.0605,0.03993,-0.0036976,-0.011335,0.0012896,0.001994,-0.0056369,-0.00306,-0.0064046,-0.0041481
7.0703,0.066412,0.00342,-0.0089073,0.00085601,0.0011136,-0.0017906,0.0020198,-0.0021673,-0.0006863
7.0801,0.090515,0.0093601,0.00097609,-0.0027244,-0.002314,0.00028891,0.0023931,0.00059397,-0.00073741
7.0898,0.10515,0.011973,4.1342e-05,0.00039882,0.00094564,0.0013527,0.0037984,0.0012724,0.0015854
7.0996,0.1068,0.008263,-0.002584,-0.001963,-0.00071672,-0.0026846,-0.0028306,-0.0037267,-0.001521
7.1094,0.10288,0.0064532,-0.00030716,-0.0010887,-0.00086428,-0.00097494,-0.0021031,-0.001496,-0.00083731
7.1191,0.092173,0.0062235,0.0050047,-0.0018032,-0.0015979,-0.00075553,-0.0024843,-0.00080045,-0.001332
7.1289,0.062741,-0.0032612,-0.0042468,-0.0013076,-0.0015575,-0.0029195,-0.0064449,-0.0033264,-0.0023869
7.1387,0.033738,-0.004422,-0.0010688,0.0014984,0.0019295,-0.001385,-0.0061556,-0.0024069,-0.00066792
7.1484,0.0053631,-0.0019142,0.00098947,0.0022384,0.0030043,0.00076225,-0.0031402,0.00065093,0.0016611
7.1582,-0.022961,-0.0091504,-0.00026369,9.3153e-05,-0.00053298,-0.00088571,-0.0048018,-0.0021404,-0.0010521
7.168,-0.045045,-0.0069443,-0.0031225,-0.0016857,-0.0013789,-0.002144,-0.005168,-0.0025729,-0.0025864
7.1777,-0.053413,-0.0078333,0.00031743,0.0030591,0.0021269,-0.0027512,-0.0032479,-0.0032392,0.00046379
7.1875,-0.056449,-0.0028601,0.0022652,-0.00031783,0.0007057,0.0022579,0.0011357,0.002144,0.0011407
7.1973,-0.05987,-0.0078819,-0.0040634,-0.00015826,-0.00037177,-0.00051779,-0.00067283,-0.00023739,-0.0017366
7.207,-0.055812,-0.0048013,-0.00079308,-0.00064889,-0.0014925,0.0007459,0.0013181,0.0016096,-0.0014091
7.2168,-0.049952,-0.0036456,-0.0027361,0.0031441,0.0036703,-0.00033831,0.00095459,-6.8964e-05,0.0019391
7.2266,-0.044339,-0.0027268,-0.00039641,0.0012313,0.0011076,-0.0012762,-0.00057922,-0.001974,-0.00063384
7.2363,-0.034818,-0.0017134,3.0701e-05,-0.0012602,-0.0025435,1.7043e-05,0.00094673,-7.6232e-05,-0.00047369
7.2461,-0.024893,0.0022839,0.0020696,-0.0036748,-0.0041099,0.0033719,0.0039463,0.0027547,-0.0014491
7.2559,-0.023459,-0.0025612,-0.0042532,5.6124e-05,0.0010839,-0.0022337,-0.0017771,-0.0036472,-0.0014209
7.2656,-0.011519,0.00067904,0.001046,0.00060239,0.00055169,-0.0009357,6.322e-05,-0.00074283,-0.0011413
7.2754,-0.0099058,-0.0017126,-0.0027329,0.0004045,2.2121e-05,-0.00040959,0.00034307,-6.6818e-05,-0.00031159
7.2852,-0.0041009,0.027681,0.018359,-0.00031017,-0.0017649,0.00072287,0.002033,0.00060119,0.0011804
7.2949,0.0041983,0.034468,0.025589,-0.0012985,-0.0019294,0.00051949,0.00048418,0.00067927,-0.0016462
7.3047,0.0082256,0.032227,0.025187,5.2884e-05,0.00023301,0.0029048,0.0022443,0.0035856,0.0013543
7.3145,0.0077322,0.026263,0.020828,-0.0027585,-0.0033146,0.00027607,0.00044375,0.00018589,-0.0021969
7.3242,0.0096855,0.023104,0.019168,-0.00083529,-0.0010465,-0.0028164,-0.0022605,-0.0038449,-0.001576
7.334,0.014961,0.02502,0.022069,-0.00062113,-0.00036642,0.00086582,0.0010013,0.0021782,0.00080137
7.3438,0.013068,0.018349,0.0168,-0.00047348,-0.00060511,0.001232,0.00045733,0.0022704,-0.0013587
7.3535,0.011129,0.014635,0.013606,-0.00049936,-0.0010922,0.00066472,0.0014537,0.001613,-0.00076281
7.3633,0.0068379,0.0077225,0.007463,-0.00079344,-0.001014,-0.0012603,-0.0015488,-0.002393,-0.0013162
7.373,0.0031386,0.0069575,0.0058373,0.0033608,0.0033914,0.00064175,0.0003841,0.00023011,0.0018152
7.3828,-0.0039331,-0.0036166,-0.0037094,-0.0025742,-0.002771,-0.0020726,-0.0010594,-0.0025864,-0.0010039
7.3926,-0.0062553,6.0653e-05,-0.001792,0.0017972,0.00063329,0.00020883,2.9524e-05,-0.00021713,0.00099821
7.4023,-0.012735,-0.0080377,-0.0094156,0.00024025,-0.00051738,-0.00087001,-0.0011076,-0.0026462,-0.001757
7.4121,-0.014932,-0.0078197,-0.009906,0.0019505,0.003322,-0.00024824,0.0005712,-0.00095309,0.001986
7.4219,-0.015385,-0.0070497,-0.0094945,0.0012707,0.001047,-0.00015135,-0.00035123,-0.0012326,0.0012227
7.4316,-0.014324,-0.0023109,-0.0058345,0.00014669,0.00026798,0.0024764,0.0019707,0.0018384,0.0017386
7.4414,-0.013638,-0.0063889,-0.0085152,-9.094e-06,-0.00056696,0.00078308,0.00071105,0.00083305,0.00082931
7.4512,-0.017409,-0.0055419,-0.0090227,-0.0012206,-0.001453,0.0014005,0.00093185,0.00072168,0.00087007
7.4609,-0.011061,-0.0048979,-0.0067058,-0.001029,-0.00041027,0.00099165,0.00074717,0.0017986,0.0016987
7.4707,-0.00086607,-0.0029875,-0.0023652,-0.0016177,-0.0011406,-0.00070259,-3.7336e-05,-0.001062,-0.0011815
7.4805,0.016843,0.0051991,0.0086145,-0.0014264,-0.0011755,0.00094667,0.0012354,0.00026632,0.0019853
7.4902,0.022257,-0.0046698,0.0032286,-0.00071962,-0.0014403,-0.00047858,-0.00059334,-0.0010232,-0.00075231
7.5,0.043611,0.0042917,0.015825,-0.0013969,-0.0016397,0.0018101,0.00019144,0.0022145,-3.2685e-05
7.5098,0.054047,0.0033377,0.018212,0.0019766,0.0018061,0.0032496,0.0032983,0.0039172,0.0020739
7.5195,0.044477,-0.00026324,0.01286,0.0010338,0.00086783,-0.0032766,-0.0033191,-0.0045649,-0.0012877
7.5293,0.028361,-0.0024121,0.0066143,0.00089618,0.0010726,0.00028402,0.00041924,-0.0010891,0.00084738
7.5391,0.009369,0.0014605,0.0037803,0.00048359,0.00097259,0.0016348,-0.00038989,0.0021146,0.0011199
7.5488,-0.014375,0.0066154,0.0004583,-0.0030472,-0.0026679,0.00064107,-0.00011271,0.0013079,-0.0012009
7.5586,-0.019068,0.0074822,-0.00030575,0.0003996,0.0010376,2.2538e-05,0.00060217,-0.00071877,0.0007398
7.5684,-0.0024142,0.0031553,0.0015216,-0.0025767,-0.0020208,-0.00064846,-0.00070662,-0.00055712,-0.0010163
7.5781,0.011565,0.0044181,0.0065145,-0.0010963,-0.00030289,0.0022703,0.0018911,0.0032386,0.0015905
7.5879,0.0072146,-0.00015809,0.0020045,0.00064138,0.00054539,-0.0015259,-0.0010517,-0.00077952,-0.0015229
7.5977,0.0061149,-0.0044443,-0.001347,-0.0018786,-0.0022947,-0.0018403,-0.00099932,-0.0024681,-0.0016954
7.6074,0.0058753,-0.0041525,-0.0012111,0.0010788,0.0010462,-0.0015205,-0.0020327,-0.0028064,-0.0018302
7.6172,0.0084315,-0.0059772,-0.0017507,-0.0019886,-0.0021925,-0.00022126,0.00036236,0.00010506,-0.00056193
7.627,0.010648,-0.0068779,-0.0017371,-0.0038388,-0.0029165,-0.0027331,-0.0021775,-0.0024987,-0.0028411
7.6367,0.0077544,-0.0096907,-0.010269,-0.002431,-0.0023984,-0.00095633,-0.0011226,-0.0035563,-0.0010732
7.6465,0.12434,-0.00087348,-0.012699,0.00018716,-0.00050451,-0.00053523,0.007355,-0.003236,-0.001006
7.6563,0.41372,0.010724,-0.0080236,-0.0011813,-0.00053885,0.00037529,0.013944,0.0063332,-0.0028788
7.666,0.242,-0.015137,0.014132,-0.00023928,0.001506,0.0001406,-0.018778,0.0038408,0.0053193
7.6758,-0.31036,-0.034393,0.011646,-0.011677,-0.011306,0.00048599,-0.012517,0.0030794,0.0026469
7.6855,-0.63648,-0.0060434,-0.013829,-0.0030708,-0.0012903,0.0028243,0.0082278,0.0008559,0.0018521
7.6953,-0.36091,0.0439,0.032565,0.0012658,0.0016537,0.012612,0.012344,0.00094723,-0.00043573
7.7051,-0.069562,0.045492,-0.0012257,0.0036869,0.0015029,0.032318,0.017151,-0.0021484,-0.00046321
7.7148,0.031324,-0.005147,0.0029656,0.0020095,0.0027804,0.0040443,0.002105,0.0058986,0.0026999
7.7246,0.01813,0.0018285,0.0018806,-0.0014174,-0.0019618,5.3909e-05,0.00036853,0.0025638,-0.0008773
7.7344,0.022264,0.0060252,0.0061332,0.0016134,0.0012862,0.00061087,0.0026041,0.0025468,0.00080625
7.7441,0.02879,0.0038832,0.0072322,-0.00011564,8.8431e-05,0.0020602,0.00079144,0.0023872,0.0016313
7.7539,0.012558,-0.0015812,-0.0024809,-0.00017824,-0.00029907,-0.0019765,-0.0027036,-0.004002,0.00078468
7.7637,0.023236,0.0045165,0.0063695,0.0024898,0.0023739,0.0017275,0.0019284,0.0020248,0.0015253
7.7734,0.011547,0.0018906,0.0012789,0.00024568,0.00093197,-0.0029542,-0.0030583,-0.0036919,-0.0012088
7.7832,0.024241,-0.00071985,-0.0019191,-0.0016956,-0.0018219,-0.0014771,-0.00040189,-0.0020225,-0.0011389
7.793,0.030627,0.0029273,0.0015971,-0.0010591,-0.00073968,-0.00084323,-0.0001917,-0.0017561,-0.0012229
7.8027,0.020307,-0.0098614,-0.004886,-0.00073329,-0.0012583,-0.0039213,-0.007302,-0.0066524,-0.0023069
7.8125,-0.0038786,-0.0053757,-0.0043907,0.00083644,0.0015886,-0.0038499,-0.0053322,-0.0022008,-0.00086896
7.8223,-0.014336,-0.0067003,-0.004396,-0.00063468,-0.00020823,-0.0025707,-0.0041452,-0.0020936,-0.0015344
7.832,-0.019519,-0.0033985,-0.0055683,0.00025924,0.0002168,-0.00058827,-0.00065288,-0.00028532,-0.00096259
7.8418,0.0018911,0.00095387,-0.0033748,0.001068,0.00080298,0.0039418,0.0057937,0.0049229,0.0012269
7.8516,0.0041046,-0.0088706,-0.011815,-0.00048464,-0.0017781,-0.0016538,0.00022527,-0.002091,-0.0009022
7.8613,0.034808,-0.0010138,-0.0045777,0.0014199,0.0019652,0.0025308,0.0055979,0.0023697,0.00085257
7.8711,0.046628,-0.0063982,-0.00968,-4.3945e-05,0.00073959,-0.0026518,-0.00067252,-0.004013,-0.0017009
7.8809,0.078464,-2.7301e-05,-0.0013655,0.0021611,0.0022988,0.0017797,0.0046254,0.0016326,0.0016492
7.8906,0.094859,0.0035635,0.00062582,-0.0013096,-0.0015944,0.0020732,0.004535,0.0027426,0.0022586
7.9004,0.10397,-0.0026547,-0.00098292,-0.00034551,-0.00074838,0.00016903,0.0012419,-0.00038375,0.0014153
7.9102,0.10391,-0.001403,-0.00014406,-0.0011732,-0.00063172,-0.00070267,-0.00089479,-0.001415,0.00087968
7.9199,0.10365,0.002083,0.0045538,-0.0022904,-0.0010904,-0.00054337,-0.00060396,0.00048925,-0.0015824
7.9297,0.088781,0.0043784,0.011303,-0.0023884,-0.0025652,-0.00046592,-0.0025723,-0.0001824,-0.0014087
7.9395,0.06467,0.0051346,0.01035,-0.002646,-0.0020362,-0.00019574,-0.0031399,-0.00049757,-0.0012796
7.9492,0.034037,0.0060416,0.013731,-0.0020745,-0.0025961,-0.00028971,-0.0045865,4.466e-07,-0.00097312
7.959,0.0048566,0.0067325,0.010602,0.00036552,-0.00032868,0.0015535,-0.0025591,0.001844,0.0014397
7.9688,-0.023889,0.0032972,0.0058774,0.001666,0.0021954,-0.00027156,-0.0038989,-0.00019233,0.00016766
7.9785,-0.040458,0.0024377,0.0039881,0.0010154,8.9421e-06,0.0013267,-0.00036322,0.002159,0.0021016
7.9883,-0.054625,0.00066226,-0.001307,-0.0012131,-0.0010846,-0.00099529,-0.0025113,-0.0011764,-0.0011815
7.998,-0.056841,-0.00020379,-0.0014049,0.0016751,0.0016121,6.4773e-05,-0.00036095,1.5007e-05,0.00052469
8.0078,-0.057129,-0.0026668,-0.0023563,-0.0011629,-0.002117,-0.00019609,-0.00061753,-0.00099747,0.00092404
8.0176,-0.050135,0.0034803,-0.0002922,-0.00033069,-6.2027e-05,0.00038595,0.0011811,6.7089e-05,-0.00080605
8.0273,-0.047876,-0.0011613,-0.0019374,-0.0002651,-0.0003521,-0.0024937,-0.0023858,-0.0036828,-0.0013659
8.0371,-0.044404,-0.0050425,-0.003055,0.00071451,-0.00024204,-0.0033617,-0.0031811,-0.0045492,-0.0021092
8.0469,-0.028999,0.004555,0.0011251,-4.0693e-05,-0.0003097,-0.00014139,0.0015525,0.00016513,8.4192e-06
8.0566,-0.020966,0.0047645,0.0015684,0.00091166,0.0012593,-0.00098576,0.00019849,-0.00064051,-0.00076619
8.0664,-0.014569,0.0041089,0.0021703,-0.00098142,-0.00018259,-0.0012388,-0.00050021,-0.0019452,-0.0014194
8.0762,-0.0097176,8.1307e-05,0.00041883,-0.00030986,-0.00040745,-0.0010741,-0.00067193,-0.0018619,-0.00096273
8.0859,-0.0056034,-0.00082202,0.00049339,0.0023075,0.0021564,-4.937e-05,0.00013751,-0.0010256,0.001038
8.0957,0.00071695,0.0020996,0.0015294,0.0014977,0.0014906,-0.0030817,-0.0017831,-0.0037618,-0.0015562
8.1055,0.0086098,0.044365,0.030538,-0.0017909,-0.001101,3.359e-05,0.00015538,0.00071302,-8.6446e-05
8.1152,0.011846,0.044786,0.032303,6.7718e-05,-0.00028238,0.0020371,0.0012775,0.0017774,0.0014138
8.125,0.012031,0.040372,0.031335,-0.0025146,-0.0016766,0.00045647,0.00011555,0.00094493,-0.00056946
8.1348,0.0069402,0.030485,0.022397,-0.00067011,-0.00095736,-0.00045081,-0.00040757,-0.00081543,-0.00037964
8.1445,0.0093232,0.027182,0.020852,0.00060869,0.0011071,0.00040216,0.00036033,0.0010041,0.00083849
8.1543,0.0092346,0.02183,0.016647,0.0022837,0.0017695,0.0021333,0.0014171,0.002418,0.0019242
8.1641,0.0012879,0.01174,0.0076318,0.001486,0.00093983,-0.0014872,-0.0011413,-0.0033187,-0.0011802
8.1738,-0.0016642,0.0020909,0.00088395,0.0020474,0.0023354,-0.0012401,-0.0013213,-0.0015463,-0.0023705
8.1836,-0.00096123,0.0026101,0.00084525,0.0028039,0.0035971,0.0020046,0.0018201,0.0021096,0.0024947
8.1934,-0.0041354,-0.003538,-0.0041153,0.0023578,0.0026285,0.00073224,0.00056683,0.00054546,0.0014661
8.2031,-0.0098647,-0.0076113,-0.0089196,0.00037278,0.0010486,-0.0011137,-0.0013301,-0.0017291,-0.0013181
8.2129,-0.010576,-0.0089607,-0.0099798,0.0022037,0.0020183,0.00011867,0.00017091,0.00055419,0.0012523
8.2227,-0.0089004,-0.004355,-0.005403,0.0024676,0.0032612,0.0039306,0.0028616,0.0057725,0.0017591
8.2324,-0.012642,-0.0062419,-0.0095983,-0.0016698,-0.0006259,0.001567,0.00096374,0.0026364,-0.0018388
8.2422,-0.018872,-0.010331,-0.013697,-0.0012343,-0.0018718,-0.00043592,-0.00023143,-0.00063419,-0.0010653
8.252,-0.017217,-0.0096385,-0.012411,-0.0014443,-0.0011065,-0.00041812,-0.00042343,-0.00066759,-0.0012492
8.2617,-0.01911,-0.0086218,-0.01207,9.0296e-05,0.00012936,-0.0011162,-0.0011004,-0.0020947,-0.00071817
8.2715,-0.013173,-0.0019182,-0.0092648,0.001299,0.0015697,0.00034742,-0.00018737,0.00074213,0.0011068
8.2813,-0.01717,-0.0064076,-0.008559,-0.0026309,-0.0024827,-0.0019134,-0.0007433,-0.0020734,-0.0018277
8.291,-0.012132,-0.0093575,-0.0098808,-0.00026927,-0.00071694,-0.0011561,-0.00078649,-0.0018783,-0.00051259
8.3008,0.0016797,-0.0041078,-0.0017576,-0.0005748,-0.00056959,4.3469e-05,0.0010387,0.0005985,-0.0002775
8.3105,0.017282,-0.0039348,0.006104,-0.0017316,-0.0014066,-0.0023638,-0.00099151,-0.0027019,-0.0019641
8.3203,0.0227,-0.0093361,0.004509,0.00078056,0.0012995,-0.0013141,-0.000189,-0.003898,0.0015423
8.3301,0.036906,-0.010164,0.0089026,0.0012074,0.0017806,-0.0097355,-0.0041998,-0.010149,-0.0018904
8.3398,0.054803,-0.002769,0.019806,-0.0024575,-0.0024806,-0.00028903,-0.00020017,-0.0012172,-0.001806
8.3496,0.048569,0.0035529,0.019965,-0.0007167,-0.00078073,0.0024535,0.00025304,0.0017696,0.0023044
8.3594,0.032145,0.0053859,0.014518,0.0015592,0.00055513,0.0036764,0.0018215,0.0042856,0.0013568
8.3691,0.0012974,0.0065614,0.001995,0.00166,0.001124,0.00051877,-0.00080693,0.00062088,0.0015235
8.3789,-0.024688,0.0059173,-0.0064612,-0.001826,-0.0018652,-0.0052901,-0.0028749,-0.0033199,-0.0024007
8.3887,-0.018532,0.00065385,-0.0052535,-0.00221,-0.0022503,-0.00050714,0.00098755,2.9707e-05,-0.0009321
8.3984,-0.0015741,0.0026022,0.0015719,0.00033594,1.6433e-05,0.00087129,0.0013695,0.00043345,0.00064625
8.4082,0.011648,-0.00017073,0.0032834,-0.00065406,-0.00048241,-0.00013936,0.0006792,-4.4096e-05,-0.0010262
8.418,0.010344,0.0027434,0.0055293,-0.0013731,-0.0011059,0.0017905,0.00064048,0.0018612,0.00068584
8.4277,0.013532,-0.0003156,0.0054131,-0.001008,-0.0011698,0.00033012,0.00075686,0.00042381,0.0010099
8.4375,0.0097062,-0.00024315,0.003056,0.00098444,0.00055629,-0.00036124,-0.00062336,-0.0010072,-3.4128e-06
8.4473,0.02045,0.0033981,0.010543,0.0014095,0.0010454,0.0023342,0.0013481,0.0031226,0.0014217
8.457,0.015037,0.00096499,-0.00063388,-0.0006061,0.0003832,0.00089663,0.00048413,0.0019113,0.00096243
8.4668,0.023888,-0.00046449,0.00059324,0.00042804,-1.2402e-06,-0.00028562,0.00041489,-0.0054756,0.00059096
8.4766,0.21067,-0.032031,-0.01617,0.00057041,0.0025915,0.00060057,0.015815,0.0011481,0.00050726
8.4863,0.48809,0.012245,0.0037862,0.004894,0.0030679,0.00040954,0.0073784,-0.00096006,0.0018696
8.4961,0.167,0.056222,0.036519,-0.0021335,-0.00089141,0.0012898,-0.022548,0.0034437,0.0054644
8.5059,-0.47456,0.0098731,0.013604,0.0055585,0.0014869,0.0025451,-0.023997,-0.00070303,0.0072532
8.5156,-0.65473,-0.0090807,0.0028708,0.00025543,-0.0066771,-0.0075311,-5.9385e-06,-0.0060053,-0.0072185
8.5254,-0.40575,-0.01165,-0.0090956,0.0039838,0.0021498,-0.015275,-0.00067614,-0.0034225,-0.0051191
8.5352,-0.04018,-0.0092528,-0.018684,-0.0045999,-0.0046282,0.031592,0.006583,-0.0030099,-0.0038045
8.5449,0.012992,-0.0096929,-0.010148,0.0010314,0.00026954,-0.0071131,-0.0020672,-0.0049596,-0.0028191
8.5547,0.026412,0.0075986,0.0073598,-0.0016057,-0.0010854,0.0036316,0.0042382,0.0094998,0.0018697
8.5645,0.023048,0.0024134,-0.00036393,-0.00095927,-8.2153e-05,0.0018387,0.0029543,0.0022323,7.7883e-05
8.5742,0.020508,-0.000985,0.0018658,-0.00013375,-4.5238e-05,0.00020919,0.00033284,-0.0011982,0.0010058
8.584,0.017264,-0.00024786,-0.00060583,-0.0019178,-0.0019934,0.0018671,0.0023915,0.0011047,0.0029776
8.5938,0.0052044,-0.012507,-0.0099223,-0.0013809,-0.00086954,-0.0056981,-0.0077012,-0.0080975,-0.0019627
8.6035,0.015005,0.00046009,0.00039469,0.00056493,0.0013036,-0.0022454,-0.00030149,-0.0016129,-0.0023385
8.6133,0.035645,0.0074375,0.0087724,-0.0034972,-0.0039655,0.0042012,0.0043311,0.0056076,0.00077497
8.623,0.032276,-0.0025247,-0.00033121,0.0052648,0.0061771,0.00076016,0.0013223,-0.00028193,0.0013082
8.6328,0.024867,-0.00092097,0.0038422,0.00020713,0.00094892,0.0034696,-0.00094949,0.0012706,-0.0008402
8.6426,0.00063138,0.0030723,0.0051248,0.00062261,-0.00012395,0.0024165,-0.00071611,0.0020346,0.0017042
8.6523,-0.024678,-0.0097305,-0.010282,0.0070334,0.0061703,-0.0091206,-0.0086487,-0.0079255,0.002261
8.6621,-0.01756,-0.0047952,-0.0066444,0.0035128,0.0037997,0.00022203,0.0012189,-0.0014779,0.0026244
8.6719,0.0075149,0.0011272,0.0029742,0.0021894,0.0023031,0.0059595,0.0045821,0.0051645,0.002233
8.6816,0.018083,-0.003975,-0.0051157,-0.0018295,-0.00075874,-0.0050224,-0.00091439,-0.0030281,-0.0024349
8.6914,0.040185,-0.0063274,-0.0045668,0.0037264,0.0042589,0.0032035,0.0053492,0.0035855,0.0032282
8.7012,0.052935,-0.011376,-0.011058,0.0072185,0.0071113,-0.0025141,0.0011631,-0.001804,0.0022213
8.7109,0.084478,-0.0074715,-0.0028146,-0.00091244,0.00013795,0.0022925,0.0066979,0.0024677,0.004723
8.7207,0.10909,0.0048062,0.010807,-0.0030354,-0.0031746,0.010617,0.0094539,0.01138,0.0067485
8.7305,0.10935,-0.0059271,-0.00084009,-0.003059,-0.0030141,0.0053929,0.0028275,0.003184,0.0020213
8.7402,0.11502,0.0030488,0.010573,0.0016941,0.00085677,0.0094353,0.0083894,0.010353,0.0020767
8.75,0.096097,-0.0089869,-0.00099382,3.6152e-05,-0.0010938,-0.0051003,-0.0061583,-0.0056529,-0.002601
8.7598,0.081913,-0.00010797,0.0065249,0.0029632,0.0029759,-0.0042069,-0.0066939,-0.004615,-0.0015538
8.7695,0.069238,0.012728,0.02005,-0.0010254,-0.0011192,0.0058285,0.0011262,0.0054032,-0.003887
8.7793,0.022383,0.0039832,0.0064785,-0.0041518,-0.004287,-0.0076197,-0.0084026,-0.0057642,-0.0021606
8.7891,0.0019206,0.01074,0.01348,-0.0014429,-0.0012084,-0.0022291,-0.0052164,-0.0019388,-0.0032378
8.7988,-0.026171,0.0097649,0.010686,-0.00019161,-0.00081743,0.0005647,-0.0024837,0.00065684,0.0026931
8.8086,-0.044454,0.0053823,0.0051414,0.004286,0.0046843,-0.0028317,-0.0035926,-0.00096349,-0.0044217
8.8184,-0.054138,0.0060307,0.00466,-0.00037729,-0.001083,0.0014795,-0.0004217,0.0011255,0.0044091
8.8281,-0.073563,-0.012528,-0.016777,-0.0055472,-0.0057621,-0.015177,-0.011642,-0.015167,-0.0030094
8.8379,-0.055782,0.0050412,-0.00094389,-0.0020451,-0.0022707,-4.8063e-05,0.00010542,0.00025203,-1.9958e-05
8.8477,-0.064677,-0.010827,-0.013823,-5.0327e-05,0.00015982,-0.0118,-0.010247,-0.013612,-0.0031599
8.8574,-0.048864,0.0014444,-0.0013766,0.00092738,0.001222,0.0026694,0.00359,0.0037841,0.0024064
8.8672,-0.043238,-0.00067455,-0.0033503,-0.0026559,-0.0012516,-0.0010632,0.00049989,-0.0013232,0.0011489
8.877,-0.038649,-0.0053971,-0.0071158,0.00086468,0.00085718,-0.0023978,-0.0010311,-0.0024371,-0.0030366
8.8867,-0.0053499,0.019389,0.019446,-0.0056181,-0.0058764,0.012446,0.016865,0.014715,0.0052057
8.8965,-0.0099352,0.0070335,0.0076094,-0.0076482,-0.0075405,0.0059425,0.006929,0.0082975,-0.0029048
8.9063,0.0042644,0.014771,0.013308,-0.00051121,-0.00071402,0.0059697,0.0095651,0.010493,0.0009599
8.916,0.0023357,0.0062981,0.0059811,-0.0064576,-0.0055078,0.0022222,0.0030017,0.0056043,1.4314e-05
8.9258,0.0059183,0.037849,0.027211,-0.0017126,-0.0014302,-0.00092999,0.00014934,-0.00020176,-0.003327
8.9355,0.016241,0.04524,0.035681,-0.0035492,-0.0040041,0.0047325,0.0015671,0.0048399,0.0012598
8.9453,0.0078104,0.03289,0.02599,0.00064575,0.0014579,-0.0040796,-0.0044697,-0.0035638,-0.0036117
8.9551,0.0087515,0.03077,0.023437,-0.00036016,-0.00079514,-0.0056933,-0.0013237,-0.0035677,-0.002428
8.9648,0.013064,0.027679,0.023485,0.0038282,0.0041618,-0.00083428,-0.0011902,4.7152e-05,0.0015915
8.9746,0.018374,0.030355,0.024869,-7.6703e-05,-0.0006507,0.0062001,0.0023105,0.0063943,0.0038662
8.9844,0.0062852,0.015121,0.011413,-0.0079168,-0.0084765,-0.0023915,-0.0029814,-0.0028586,-0.0050425
8.9941,0.0086484,0.011715,0.010479,-0.0032908,-0.0030709,0.0013824,0.00077168,0.00178,0.0033923
9.0039,0.0025254,0.0025432,0.0037167,-0.00040968,0.00047324,-0.0014106,-0.00080076,-0.0012824,-0.0022956
9.0137,0.00062273,0.00043341,0.00017615,0.0037848,0.0040841,0.002029,0.00091356,0.0011466,0.0023533
9.0234,-0.017538,-0.016583,-0.017011,-0.0085486,-0.0077376,-0.0094966,-0.0060154,-0.011279,-0.0069323
9.0332,0.0008403,0.0015599,0.0011414,-0.00088233,-0.00097181,0.0066458,0.00395,0.0069866,0.0068631
9.043,-0.0074951,-0.0022503,-0.0040722,-0.0091697,-0.0083327,0.0029701,0.0011609,0.0025222,-0.0034347
9.0527,-0.0068355,-0.0046571,-0.0036999,0.001412,0.0024904,0.0012362,0.0013012,0.0018747,0.0019586
9.0625,-0.021207,-0.013441,-0.015866,0.0026164,0.001923,-0.0043888,-0.0016219,-0.0061393,0.0045182
9.0723,-0.0075701,0.00043312,-0.0026885,-0.012979,-0.012912,0.0061775,0.0033248,0.0058681,-0.0015743
9.082,-0.032673,-0.021521,-0.025461,-0.00069024,-0.00062255,-0.011944,-0.0085736,-0.014896,-0.0032603
9.0918,-0.010786,-0.0042268,-0.0067597,0.0026162,0.002809,0.00034897,-0.0015817,-0.0010928,1.7043e-05
9.1016,-0.019889,-0.0075342,-0.011101,-0.00025103,-2.097e-05,-0.0042437,-0.0039595,-0.0050654,-0.0051011
9.1113,-0.0071593,-0.0010674,-0.0045672,0.00028253,-0.00018952,0.0034043,0.0021723,0.0034584,0.0045873
9.1211,0.0028061,-0.00021584,-9.3055e-05,0.0038669,0.0038863,0.001754,0.001729,0.0023675,-0.00079962
9.1309,0.023787,0.0098175,0.012779,0.0035157,0.0038169,0.0090425,0.0046995,0.0086094,0.0046779
9.1406,0.016441,-0.009631,-0.0014326,0.00077198,0.0013038,-0.0046616,-0.0026493,-0.0045617,-0.0034436
9.1504,0.041265,0.0025982,0.013549,-0.0034329,-0.0029239,0.0025162,0.0022896,0.0041347,0.0034089
9.1602,0.046512,-0.0026837,0.011613,-0.0034156,-0.0035337,-0.0015821,0.00095872,-0.0029526,0.0030029
9.1699,0.037442,-0.0038685,0.0088038,0.0022109,0.0022131,-0.010943,-0.0051053,-0.015325,-0.0075635
9.1797,0.0028479,-0.023518,-0.014544,0.0086739,0.0077995,-0.020783,-0.0093766,-0.0095121,-0.0031223
9.1895,0.011889,0.0085453,0.012451,-0.0034369,-0.0040799,0.011531,0.0024755,0.007584,0.0026284
9.1992,-0.039269,-0.016363,-0.020922,-0.004099,-0.0041222,-0.018239,-0.0001382,-0.0021373,0.0031787
9.209,-0.025379,-0.0036929,-0.012085,-0.0030704,-0.0030959,-0.0059481,-0.0011048,-0.0033508,-0.00054738
9.2188,-0.0067919,-0.0019709,-0.0035421,0.010042,0.0096765,0.00088437,0.0014471,0.0011882,0.0036147
9.2285,0.0011575,-0.0090157,-0.007155,0.0028306,0.0030507,-0.007446,-0.0028243,-0.0063569,-0.00385
9.2383,0.01845,0.011778,0.013361,-0.0013517,-0.0011868,0.0063574,0.0024307,0.0079289,0.0031419
9.248,0.01034,-5.3271e-06,0.0022414,-0.0038523,-0.0040377,0.00010721,0.0023911,0.00036629,0.0015269
9.2578,0.012254,0.003966,0.0056302,0.0057091,0.0053836,1.9456e-05,0.001143,5.3925e-05,0.0031606
9.2676,0.0134,-0.0002333,0.0036081,0.0038697,0.0034183,0.00019742,-0.00083263,-0.00079152,-0.0006286
9.2773,0.019736,0.0070983,0.0059493,-0.0038813,-0.0036781,0.0028594,0.0012531,0.0051396,0.0042373
9.2871,0.023583,0.0054422,0.0043807,0.0050886,0.0047979,0.0055022,0.0053588,0.0031688,0.0046334
9.2969,0.16831,0.019144,-0.0030896,0.0044617,0.004804,-0.00040375,0.011373,0.0029872,-0.0055421
9.3066,0.42322,0.016236,0.010177,0.0072669,0.0079199,0.0031066,0.010641,-2.0499e-05,-0.0034447
9.3164,0.2332,0.027922,0.041554,-0.015016,-0.011813,0.019886,-0.0017439,0.0061335,0.0091097
9.3262,-0.33051,-0.023806,-0.017245,0.00090099,-0.00040013,0.0057779,-0.025566,-0.00058919,-0.0012886
9.3359,-0.57538,0.012531,0.013411,0.0057529,0.0073531,0.0017383,-0.0012141,-0.00016222,0.0010651
9.3457,-0.42049,-0.044501,-0.04146,-0.0045,-0.0036925,-0.015786,-0.0010223,-0.016996,-0.0073369
9.3555,-0.11755,-0.037225,-0.024211,0.0069825,0.0055463,0.007691,0.00077709,-0.00010064,-0.0060652
9.3652,0.030769,-0.00053601,-0.0032729,0.0053591,0.0050795,0.012589,-0.0055342,-0.0002708,-0.0020837
9.375,0.0055027,-0.0092728,-0.0096311,0.0053356,0.0064486,-0.0042537,0.00014005,-0.0016356,0.002668
9.3848,0.010685,-0.0040421,-0.0049485,-0.010739,-0.010804,-0.0030517,-0.0017339,-0.0044945,-0.0039911
9.3945,0.012156,-0.010964,-0.010738,-0.0040605,-0.0041235,-0.0060451,-0.0029307,-0.0083052,-0.0035133
9.4043,0.017181,0.0026574,0.0041436,-0.00063391,0.00025735,0.00070266,0.0025112,0.00095838,0.0021101
9.4141,0.020488,0.0027434,0.0033336,-0.00071136,0.00013403,0.0043045,0.0015194,0.0043006,0.0037068
9.4238,0.0097071,-0.00067471,0.00062868,0.0016727,0.00098022,-0.0080254,-0.0030379,-0.0047183,0.0032296
9.4336,0.03781,0.013067,0.015522,-0.0019819,-0.0017502,0.0050635,0.0079089,0.010191,1.1027e-05
9.4434,0.031131,0.0034913,0.0060822,-0.010507,-0.010316,-0.0022679,-0.0017185,-0.0028429,-0.0062757
9.4531,0.022231,-0.0040134,-0.0050793,0.0039188,0.0040162,-0.0060022,-0.0088743,-0.010109,-0.007613
9.4629,-0.0082743,-0.0099577,-0.010624,0.0099921,0.0095179,-0.013556,-0.015448,-0.014126,-0.0067237
9.4727,-0.019687,-0.011828,-0.013047,-0.00033382,-0.0011471,-0.0095127,-0.011478,-0.012007,-0.00028646
9.4824,-0.010024,0.0045348,0.0048083,0.0092075,0.0093274,0.0010485,0.0017125,0.0015879,0.0037874
9.4922,0.017984,0.015058,0.016883,0.0045994,0.0049258,0.012232,0.014012,0.014708,0.0043603
9.502,0.0057967,-0.0065925,-0.005488,-0.00058938,0.00035631,-0.0061247,-0.0019022,-0.0051997,-0.0029943
9.5117,0.0431,0.0059053,0.011036,-0.0043454,-0.0047815,0.0036559,0.004591,0.0036302,-0.0031341
9.5215,0.040595,-0.012578,-0.0069369,0.0027726,0.0024975,-0.0072691,-0.004563,-0.0063521,-0.0069849
9.5313,0.06255,-0.013838,-0.0082364,0.00031296,-0.00016658,-0.0055169,-0.0019502,-0.005886,-0.0042839
9.541,0.073,-0.015522,-0.0097511,-0.0022142,-0.0015257,-0.010471,-0.0082304,-0.0090215,-0.0031508
9.5508,0.078353,-0.02302,-0.018428,0.0075928,0.0073635,-0.0084053,-0.0064427,-0.0094306,-0.0033262
9.5605,0.093296,-0.0073105,-0.0024359,0.002883,0.0017698,-0.0021455,-0.00064148,-0.0022569,-0.0066508
9.5703,0.1021,0.0038643,0.0097783,-0.0058767,-0.00531,0.0098537,0.0066365,0.0083108,0.0017101
9.5801,0.078494,-0.00023148,0.0013299,-0.00051873,0.0010855,0.0036737,0.0011231,0.0053172,-0.0019875
9.5898,0.060773,0.0056578,0.0064456,-0.010144,-0.010074,0.0065401,0.0032995,0.0057532,0.0044185
9.5996,0.023132,-5.9015e-05,-0.0033237,0.0053774,0.0055761,-0.0021717,-0.0069868,-0.0048629,0.0042421
9.6094,-0.0017833,0.0030591,-0.00036726,-0.0084423,-0.0080228,-0.00058709,-0.003822,-0.0013588,-0.0031542
9.6191,-0.021538,0.0044994,0.0028159,-0.0026124,-0.0020943,-9.3525e-05,-0.0032049,0.00065439,-0.0047308
9.6289,-0.044285,-0.00092718,-0.0052901,0.0089385,0.0088474,-0.00522,-0.0068093,-0.0053774,-0.0063435
9.6387,-0.042735,0.0094845,0.0074701,0.00028584,-9.9601e-05,0.0054734,0.0021481,0.0057564,-0.00078332
9.6484,-0.054935,-0.00056866,-0.0035992,-0.0067451,-0.0069698,-0.0016881,-0.0015162,-0.001456,-0.0026371
9.6582,-0.04489,0.0088542,0.0047654,-0.0035282,-0.0035862,0.0045848,0.0036863,0.0033997,-0.00095843
9.668,-0.051253,-0.0016548,-0.0020819,0.00097733,0.0017814,0.00024629,0.00056796,0.00073664,-0.0010361
9.6777,-0.058024,-0.012963,-0.015941,0.01295,0.012655,-0.014298,-0.0043072,-0.00024594,0.0073547
9.6875,-0.037498,0.0014116,-0.0013805,0.0050706,0.0056795,0.0019522,0.0038683,0.0020098,0.0028768
9.6973,-0.035948,-0.0045244,-0.0050384,0.0035765,0.0042754,-0.0014376,-0.00070841,-0.0016802,-0.00057473
9.707,-0.031837,-0.0087426,-0.0086709,0.0046467,0.0044416,-0.0071237,-0.0030917,-0.0054232,-0.0051607
9.7168,-0.0068474,0.011209,0.010073,0.0041143,0.0050041,0.0043203,0.0051118,0.0030715,0.0037439
9.7266,-0.0070838,0.0065143,0.0049736,0.0026122,0.0024845,-0.00014524,0.0018998,-0.00021927,0.0032447
9.7363,-0.015481,-0.006557,-0.006782,0.0058412,0.005605,-0.011724,-0.0073292,-0.013093,-0.0074351
9.7461,0.0029022,0.0098299,0.010276,-0.00019866,0.00015631,-0.0029538,-0.00021234,-0.0024744,-0.0037282
9.7559,0.0063015,0.0081004,0.0092596,0.0016734,0.0015574,-0.0010897,-0.002011,-0.0010241,-0.00092469
9.7656,0.0079578,0.0097254,0.0087023,0.0023131,0.0017791,-0.0059446,-0.0011641,-0.0064473,0.0030761
9.7754,0.009073,0.0087267,0.0099543,0.0068955,0.0066394,-0.0047545,-0.0027699,-0.0062681,0.004288
9.7852,0.020553,0.021836,0.019804,-0.0027408,-0.0035067,0.0092519,0.0057694,0.010647,0.0066658
9.7949,0.0047935,0.005896,0.0054683,-0.00061092,-0.00086438,-0.0047962,-0.0024771,-0.0029777,-0.0040652
9.8047,-0.0032509,0.00036776,-0.0011759,0.0021675,0.0016583,-0.005503,-0.00047837,-0.002076,-0.0029467
9.8145,-0.0068317,-0.0016293,-0.002592,-0.00083149,-0.0015941,-0.0048886,-0.0022781,-0.0052674,-0.0055307
9.8242,-0.0060912,0.0011072,0.0010266,0.0090277,0.009173,-0.0013872,0.0005055,-0.00070168,0.0032056
9.834,-0.01056,-0.0040597,-0.0036284,0.0052781,0.0051947,-0.0036029,0.00021701,-0.0050203,0.0055231
9.8438,-0.015815,-0.0063219,-0.0074175,-0.0053936,-0.0054021,-0.0055496,0.0014296,-0.00012379,0.011061
9.8535,-0.016411,-0.0063986,-0.0096066,0.0073539,0.0050978,-0.0040822,0.001272,-0.0040621,0.0085545
9.8633,-0.013561,-0.00418,-0.0047413,-0.0046767,-0.0037962,0.00095748,0.00075272,-0.00023155,0.0065855
9.873,-0.0098468,-0.0070044,-0.0055711,-0.0039056,-0.0033689,0.0013065,0.0019115,0.0017818,-0.0040357
9.8828,-0.005292,-0.0094152,-0.0098692,-0.0084779,-0.0084097,-0.0028083,-0.0021049,-0.0037554,-0.0019658
9.8926,0.0087768,-0.0078961,-0.0088014,0.0013222,0.0013716,-0.00027092,0.0012144,-0.0010997,0.00092591
9.9023,0.016794,-0.0085895,-0.0087301,0.0034426,0.0036447,0.000378,0.00084639,0.0010648,0.002554
9.9121,0.028713,-0.008784,-0.0081479,0.002391,0.0023814,-0.0058963,0.0018209,-0.0067134,0.0035906
9.9219,0.039841,-0.0069942,-0.0038127,-0.0016577,-0.0012694,-0.010219,-0.0041238,-0.012299,-0.0033104
9.9316,0.03715,0.00053148,0.0029033,0.0028664,0.0025984,-0.0034838,-0.00039321,-0.0032555,-0.0031896
9.9414,0.017888,-0.0039221,-0.0020266,0.0041963,0.0046646,-0.0057351,-0.0014081,-0.0064519,0.0015021
9.9512,0.00030769,0.0043118,0.0068964,-0.0038647,-0.0033551,-0.0019767,-1.8162e-05,0.0026072,0.0076263
9.9609,-0.024033,0.00034927,0.0010026,0.0044283,0.0048872,-0.005735,-0.0012277,0.00080671,-0.0028116
9.9707,-0.014532,0.001028,-0.0020198,0.005675,0.0052126,-0.0018819,-0.0013682,-0.0020688,-0.0011149
9.9805,-0.0083783,-0.0054256,-0.0059602,0.0010897,0.0011919,-0.0074561,-0.0035994,-0.00654,-0.0036181
9.9902,0.014316,0.0045611,0.0035604,-0.0045944,-0.005528,0.0044493,0.0014922,0.002656,-0.0072025
10,0.0044088,-0.0022466,-0.000147,-0.010639,-0.010338,-0.004697,-0.0040582,-0.0020618,-0.0036389
10.01,0.016063,0.0046115,0.0050643,0.0021338,0.0020882,0.0018598,-0.00087163,-0.00028729,0.0064859
10.02,0.0011963,-0.0071978,-0.0056644,-0.0054668,-0.0052232,-0.0060527,-0.0053511,-0.0032295,-0.0043061
10.029,0.025946,0.011929,0.012492,0.0061229,0.0064393,0.011225,0.0024606,0.0052592,-0.002095
10.039,0.0081686,-0.0035274,-0.0023161,-0.0072191,-0.0067135,-0.001144,-0.0029135,-0.0034628,0.00087166
10.049,0.015637,-0.0038329,-0.0081114,0.0063824,0.005586,-0.00076872,-0.00048148,-0.0091295,-0.0048842
10.059,0.20239,0.0054142,-0.006157,-0.0070822,-0.0062491,0.0037354,0.008804,0.0051292,0.00060064
10.068,0.37922,-0.0086077,-0.0068045,-0.0045822,-0.0059673,0.00057085,0.0045501,0.0042511,0.0036635
10.078,0.090989,-0.0021939,0.011664,-0.0062857,-0.0073049,-0.00058053,-0.017954,-0.003115,-0.008144
10.088,-0.3869,0.0061066,0.009084,-0.00018163,-0.0028466,0.0035568,-0.025647,0.0011901,-0.0014187
10.098,-0.52761,-0.0014483,-0.0030196,-0.0027534,-0.0078579,-2.5285e-05,0.0005429,-0.002104,-0.0002025
10.107,-0.31681,0.0063415,0.0086449,-0.00086513,-0.0024394,0.010006,0.017651,0.010311,0.004975
10.117,-0.045118,-0.018671,-0.010163,-0.00033247,-0.00073723,0.013213,0.00014134,0.0020531,-0.0032726
10.127,0.042084,0.023182,0.021475,-0.005151,-0.0049837,0.012856,-0.00066535,0.003599,-0.00022466
10.137,0.0094066,-0.0053891,-0.0044491,-0.0028347,-0.0036258,-0.0046732,0.0030666,0.00030335,-1.2163e-05
10.146,0.0051834,-0.011944,-0.008998,-0.006955,-0.0074487,-0.01074,-0.0062958,-0.01263,-0.0063722
10.156,0.018666,0.00051754,-0.00065263,0.016037,0.016468,0.00031609,-0.006054,-0.0018336,-0.0094617
10.166,0.0058294,-0.0087815,-0.0074856,0.002567,0.0024834,-0.010071,-0.0082062,-0.010442,-0.013323
10.176,0.032061,0.017127,0.017754,-0.0075524,-0.0077702,0.014004,0.010277,0.014124,0.0092529
10.186,0.017684,0.0054568,0.0083694,0.0020805,0.002862,0.0018485,0.0033481,0.0051249,-0.0020365
10.195,0.030698,0.0071615,0.0076871,-0.0026526,-0.002616,0.0061403,0.0048817,0.0048934,0.0017642
10.205,0.010063,-0.018566,-0.014983,-0.0086581,-0.0086487,-0.013747,-0.012311,-0.013314,-0.003863
10.215,0.020895,3.0626e-05,-0.0007179,0.013742,0.013414,0.0039052,0.0009248,0.0015411,0.0049194
10.225,0.0024643,0.0042367,0.0020799,-0.0053816,-0.0048494,-0.00089089,-0.0011682,-0.00035203,0.0016704
10.234,0.00078909,0.012734,0.0091902,0.0095652,0.0099178,0.0043298,0.00087783,0.0037129,0.0035235
10.244,-0.00056665,0.0099531,0.01161,-0.00078315,-0.00082642,0.0072297,0.0094151,0.0087012,0.0035308
10.254,-0.0011331,-0.0061562,-0.0062089,0.0026125,0.002106,-0.0024042,-0.003488,-0.0031412,-0.0053909
10.264,0.0094949,-0.0080343,-0.0041419,0.0066566,0.0056578,-0.0053467,-0.0013593,-0.0023585,-0.0041556
10.273,0.054024,0.016079,0.02061,-0.0030414,-0.0026572,0.012916,0.013904,0.010616,0.005468
10.283,0.04601,-0.0056052,-0.001521,0.0051455,0.0057861,-0.0084866,-0.0017732,-0.0042922,0.010589
10.293,0.069386,-0.0051633,0.0010297,0.0035416,0.0039247,-0.0021664,0.00043977,-2.5585e-05,-0.010793
10.303,0.088589,0.0038966,0.0078302,-0.0012661,-0.0015928,0.0015813,0.004428,0.0044623,0.0016442
10.313,0.075458,-0.017686,-0.013442,-0.0028261,-0.0028619,-0.0077689,-0.0080639,-0.0097683,-0.0027716
10.322,0.084355,-0.0066681,-0.0045948,-0.0037312,-0.0032911,-0.0061326,-0.0039279,-0.0055723,-0.0049733
10.332,0.081608,-0.0034565,-0.0030093,0.0079802,0.008916,-0.0021604,-0.0051173,-0.0049997,0.00033683
10.342,0.081245,0.013929,0.014899,-0.011902,-0.012329,0.013338,0.0088037,0.0045499,0.0090181
10.352,0.039972,-0.0064705,-0.0070742,-0.00041412,0.00011405,-9.037e-05,-0.0053482,-0.001002,-0.0040729
10.361,0.013938,-0.0011517,-0.0036986,0.0005047,-6.9733e-06,0.0010757,-0.0043167,0.00066487,0.0010889
10.371,-0.010031,-0.0035545,-0.0058514,0.0054356,0.0050326,-0.0014157,-0.0076164,-0.0046041,-0.0074075
10.381,-0.027777,0.0010202,-0.0029693,-0.0021283,-0.0017527,-0.0020502,-0.0044963,-0.0030107,-0.0033615
10.391,-0.044128,-0.0035981,-0.00657,-0.0037079,-0.0047143,-0.0041611,-0.0038716,-0.0031911,0.0035075
10.4,-0.048367,0.00025947,-0.003271,0.0031841,0.0035302,-0.0023988,-0.0060467,-0.0047828,-0.0053713
10.41,-0.030391,0.01898,0.017493,-0.0093932,-0.0094804,0.016065,0.011821,0.015204,0.007467
10.42,-0.058455,-0.0093613,-0.011328,-0.0075203,-0.0078867,-0.0092737,-0.0089773,-0.0085944,-0.0069924
10.43,-0.047909,-0.0040825,-0.0056637,0.014323,0.014294,-0.0054656,-0.0047068,-0.0072555,0.0040477
10.439,-0.043961,-0.0028116,-0.004186,0.00014449,6.141e-05,-0.0010433,3.3129e-05,-0.00089809,-0.0030036
10.449,-0.033957,0.0010969,0.0016624,-0.0065981,-0.007419,-0.00010729,0.0042962,-5.9999e-05,0.0023977
10.459,-0.033056,-0.023683,-0.025217,-0.0067877,-0.0077611,-0.0021001,-0.00038505,-0.00084183,-0.003236
10.469,-0.0078941,-0.0030312,-0.0029531,-0.0018963,-0.0029187,0.0092061,0.0043026,0.011528,0.0020101
10.479,-0.02189,-0.018604,-0.018385,0.0011389,0.0013937,-0.0090584,-0.0053685,-0.0067167,-0.0042537
10.488,-0.0019892,-0.0022162,-0.0016951,-0.0029392,-0.0029113,0.0074486,0.0045167,0.008655,0.00372
10.498,-0.0074936,-0.0067217,-0.0065893,-0.0035486,-0.0032531,-0.0021426,-0.0029186,-0.001006,-0.0036999
10.508,-0.0044451,-0.0043916,-0.003853,0.0012584,0.0018108,-0.0015511,-0.00092205,-0.0023321,-0.007502
10.518,-0.0077236,-0.0042085,-0.001325,-0.0086945,-0.0085692,-0.0090817,0.00073151,-0.0054654,0.0076677
10.527,-0.012332,-0.010169,-0.0083466,-0.0045703,-0.0035852,-0.014602,-0.0074817,-0.015483,-0.0059634
10.537,0.012793,0.019574,0.017477,0.0074841,0.0069024,0.010964,0.0087137,0.013405,0.0079848
10.547,-0.0081701,-0.0025373,-0.002072,0.0018572,0.00181,-0.009416,-0.0021133,-0.012461,-0.0029306
10.557,-0.004943,0.0042585,0.0047096,-0.0075248,-0.0074052,-0.00635,-0.003526,-0.0081364,-0.0090236
10.566,-0.0018305,0.0057118,0.0057558,-0.0043986,-0.0044829,0.0010216,0.0033895,0.0032318,0.006862
10.576,-0.0063232,0.0017338,0.0031019,0.0023892,0.0027592,-0.0079556,-0.0028732,-0.0052361,-0.0098382
10.586,0.014714,0.022299,0.020914,-0.0032614,-0.0040851,0.013768,0.0088179,0.012102,0.011435
10.596,0.0077146,0.007702,0.0056815,-0.01114,-0.01144,0.0037784,0.0012281,0.0066503,0.0049905
10.605,0.013568,0.0051513,0.0041039,0.0036293,0.0029271,-0.0017878,-0.0022098,-0.00016119,-0.0051392
10.615,0.028901,0.005613,0.0073686,0.00014791,0.00044969,0.0026126,0.0016085,0.003182,0.00086098
10.625,0.023086,-0.011455,-0.0097819,-0.0054431,-0.0053394,-0.006649,-0.0022186,-0.0062042,-0.0033845
10.635,0.036149,-0.0046696,-0.004035,0.0025352,0.0028344,0.0015106,-0.00071635,-0.00088302,-0.0049943
10.645,0.035202,-0.0058069,-0.0021883,0.0082235,0.0081836,-0.0018457,-0.00099427,-0.0052595,0.0022487
10.654,0.027747,-0.0012366,0.00048437,0.0039082,0.0049994,0.00076406,-0.002257,-0.00020784,0.00043021
10.664,0.016467,0.0062902,0.007939,-0.0056539,-0.005156,0.0056087,0.0017766,0.004931,0.0043216
10.674,-0.023638,-0.0082526,-0.007258,0.0055767,0.0055862,-0.010834,-0.0060505,-0.010944,-0.0066373
10.684,-0.027604,0.00045425,-0.0035459,0.017607,0.017721,-0.0080334,-0.00030504,-0.0038912,0.0061164
10.693,0.0095906,0.018101,0.015696,-0.0014392,-0.0030989,0.016022,0.0072347,0.016493,0.0043048
10.703,0.0034789,0.00050315,-0.002854,0.0022919,0.0020069,-0.0044588,0.00038729,-0.0043285,0.0032364
10.713,0.022877,0.012381,0.014846,-0.001984,-0.0015505,0.010541,0.0057886,0.010634,0.0023083
10.723,-0.0025767,-0.0090586,-0.0099456,0.0035661,0.003339,-0.0081401,-0.0050611,-0.010748,-0.0024788
10.732,0.019255,0.0068336,0.0091301,0.0030806,0.0042097,0.003378,0.0031799,0.0056522,0.0021556
10.742,0.0050857,-0.0020241,-0.0040913,0.0039414,0.0033643,-0.0035777,-0.00068683,-0.0033857,-0.0049046
10.752,0.02171,0.0050082,0.005233,0.00079037,0.0010117,0.0048804,0.0024604,0.0096437,-0.011039
10.762,0.00077401,-0.010029,-0.010631,0.0026064,0.0030307,-0.0089658,-0.0042725,-0.011719,-0.0080971
10.771,0.083572,0.01369,0.0031851,0.0012525,0.0011997,0.001123,0.0059643,0.001812,0.0039655
10.781,0.30872,0.017998,0.0066179,0.0052351,0.0056928,0.0098423,0.016212,0.0095014,0.0082703
10.791,0.26294,-0.039657,-0.023251,0.011242,0.010582,-0.0089332,-0.013305,0.00017637,-0.0031789
10.801,-0.17692,-0.0077945,-0.0036275,-0.00087079,-0.0018101,0.00064987,-0.015896,0.0002345,-0.0068231
10.811,-0.5616,0.0018188,-0.0024703,-0.0073829,-0.0056127,-0.00091963,-0.0082088,0.0031508,0.0080926
10.82,-0.43138,-0.044248,-0.043059,0.0045405,0.0012762,-0.0047513,0.0035161,-0.014886,-0.010746
10.83,-0.17877,-0.0063838,0.0064593,0.0026041,0.00092758,-0.018576,0.010289,-0.00999,-0.0072365
10.84,0.068227,0.033462,0.035467,-0.007518,-0.0068114,0.017113,0.011904,0.0058125,0.0039651
10.85,0.029036,0.016586,0.015222,-0.0086062,-0.0082564,0.0066502,0.0044291,0.0066705,0.0090075
10.859,0.010446,-0.0013709,-0.0034016,-0.00075473,-0.00052821,-0.0064429,-0.0045382,-0.0069144,-0.0017758
10.869,0.0059508,-0.015833,-0.014461,0.0010792,0.00022676,-0.0054461,-0.0025392,-0.010616,-0.003469
10.879,0.0049063,-0.0055759,-0.0057267,-0.00073131,5.389e-05,-0.0046837,-0.0032244,-0.004388,0.0037211
10.889,0.023442,0.0066169,0.0066467,-0.0036701,-0.0036173,0.0054558,0.004925,0.0059513,0.00098755
10.898,0.016801,0.0077184,0.0069609,0.0019958,0.0017288,0.0054585,0.0048086,0.0075687,0.0035907
10.908,0.016157,-0.0039205,-0.0020974,0.0083728,0.0076784,-0.003671,-0.002656,-0.0031495,-0.0029616
10.918,0.027324,0.002504,0.0049924,-0.0067753,-0.0061085,0.0049463,0.0035265,0.0057255,-0.0046874
10.928,0.02339,-0.0036467,-0.0042079,-0.0019814,-0.0024197,-0.00045983,-0.0043141,-0.0066149,-0.0022119
10.938,0.002693,-0.0049408,-0.0075288,0.0054147,0.0048111,-0.006763,-0.010474,-0.0083249,-0.0074573
10.947,-0.0032314,0.00088265,0.00085903,0.0017741,0.0019929,0.0027083,0.0015182,0.003619,0.0090887
10.957,-0.016065,-0.0021977,-0.0030029,0.0048139,0.005098,-0.0094381,-0.0074999,-0.0042564,-0.010015
10.967,-0.0091356,-0.0060915,-0.0034382,0.0037244,0.0035066,-0.008087,-0.0038564,-0.0065363,-0.0036868
10.977,0.0059765,-0.0013029,0.0004091,-0.0039152,-0.0032614,-0.0041283,-0.0022461,-0.0050001,-0.0028046
10.986,0.015919,-0.010575,-0.0074832,-0.0053713,-0.0060862,-0.0099205,-0.006687,-0.010696,-0.0046719
10.996,0.042569,-0.00010022,0.0011952,0.0027115,0.0020364,-0.00093312,0.0015591,2.2085e-05,-0.001826
11.006,0.068295,0.0051537,0.0089075,0.0052221,0.0047022,0.00071212,0.0051742,-6.2715e-05,0.0043069
11.016,0.082471,0.0080504,0.0091067,-0.0014897,-0.0011907,0.0011896,0.0024529,0.00026584,0.0036001
11.025,0.064784,-0.023161,-0.020105,-0.0088444,-0.0083737,-0.02302,-0.015248,-0.01983,-0.0058619
11.035,0.074666,-0.016778,-0.014958,-0.0058376,-0.0064589,-0.013062,-0.0087922,-0.010932,-0.0033829
11.045,0.088744,0.0021453,0.0021961,0.0010497,0.0015803,0.003039,0.0014199,0.0010734,0.0028696
11.055,0.049983,-0.023315,-0.025958,-0.0010863,-0.0007601,-0.012347,-0.016281,-0.014154,-0.0054021
11.064,0.046323,-0.010605,-0.011473,-0.0017663,-0.0015842,-0.0031438,-0.0046334,-0.0043184,-0.0017268
11.074,0.030815,0.00045565,-0.0029428,-0.0022072,-0.0021186,0.0048407,0.0013594,0.0043327,0.0045692
11.084,-0.0010542,-0.0049927,-0.0073889,-0.0031922,-0.0042345,-0.0061575,-0.0061215,-0.0050506,0.0019292
11.094,-0.022793,-0.0044249,-0.0076058,-0.0006194,-0.00018526,-0.0033043,-0.0066856,-0.0040539,-0.0025994
11.104,-0.029354,0.0056596,0.0046016,0.0014046,0.0013013,0.0078533,0.0037721,0.0069314,0.0038101
11.113,-0.043023,0.0019229,0.00092867,0.0022633,0.0031665,0.0031646,8.1462e-05,0.0016248,0.0029163
11.123,-0.052193,-0.0030139,-0.0050538,0.005938,0.0066399,-0.0011289,-0.0034406,-0.0026846,-6.038e-06
11.133,-0.03749,0.0092197,0.0090704,-0.0023902,-0.002925,0.0061373,0.0070831,0.0096283,0.008137
11.143,-0.04798,-0.0023128,-0.00037023,0.0049322,0.0038233,-0.005688,-0.0026571,-0.005106,-0.00040289
11.152,-0.0431,-0.0030727,-0.0024854,0.0038588,0.0034715,-0.0064396,-0.0049479,-0.0077278,-0.0034312
11.162,-0.03561,-0.027205,-0.026643,0.0025521,-0.00046099,-2.1717e-05,0.0057082,0.0028282,0.0078784
11.172,-0.038426,-0.035628,-0.034886,0.003692,0.0039616,-0.0095501,-0.0033176,-0.010396,-0.0084597
11.182,-0.034964,-0.032357,-0.032095,-0.0024001,-0.0008972,-0.0097207,-0.0054682,-0.011035,-0.0041042
11.191,-0.019076,-0.018863,-0.0197,-0.0035858,-0.0033867,-0.0025245,-0.0020589,-0.0037211,-0.0017913
11.201,-0.0084539,-0.0067376,-0.0071335,-0.00017349,0.00099051,0.0023048,0.0025462,0.0033749,-0.0018524
11.211,-0.0085415,-0.0074738,-0.0075943,0.0045581,0.0045201,0.0024781,0.0013226,0.0023257,0.0036396
11.221,-0.024276,-0.020676,-0.018841,0.0048366,0.0057743,-0.010693,-0.0051613,-0.01286,-0.0033137
11.23,-0.014671,-0.0098922,-0.0099227,0.0030337,0.0044913,-0.0071562,-0.0025373,-0.0082578,-0.0056864
11.24,-0.0067492,0.00040564,0.00066119,-0.0014612,-0.002259,-0.0010521,0.0026227,-0.0024078,0.0046773
11.25,-0.0037614,0.0026344,0.0030386,0.0010153,0.0013694,0.0024006,0.002068,0.0026428,0.005074
11.26,-0.010366,-0.00093939,0.00034441,-0.0011654,-0.0011958,-0.0063872,-0.0039935,-0.0061654,-0.0041459
11.27,-0.0018688,0.0076365,0.004075,-0.0047921,-0.0039457,0.00073306,-0.0018148,0.00042717,-0.0020841
11.279,-0.0080008,0.0006237,0.004624,0.0028541,0.0033425,-0.0016876,-4.5491e-05,-0.00089976,-0.0034944
11.289,0.00025238,0.0028072,0.0043571,-0.0039427,-0.0047602,-0.00054923,-0.00031231,-0.00011609,-0.0020965
11.299,0.015451,0.01095,0.010959,0.0041785,0.004119,0.0043933,0.0037241,0.0080673,0.0024193
11.309,0.0057203,-0.011154,-0.0099464,0.0090505,0.0094773,-0.010121,-0.0014213,-0.010168,-0.0016127
11.318,0.024265,-0.0010256,-0.0020403,0.0012995,0.0021978,-0.0083254,-0.0029952,-0.010698,-0.0042614
11.328,0.03718,8.8079e-05,-0.0029382,-0.009877,-0.0089498,-0.0018548,-0.0014864,-0.0017801,-0.0040346
11.338,0.043419,-0.002709,-0.0075673,0.0055233,0.005325,-0.0017114,-0.00014434,-0.006039,-0.0019106
11.348,0.039405,0.0029069,-0.0027558,-0.00078875,-0.00076061,0.0017281,-0.0010849,0.00023182,-0.0064085
11.357,0.030058,0.0085909,0.0044322,-0.00058472,-0.0016288,0.0033244,0.00028341,0.0014666,0.0018609
11.367,0.019105,0.022133,0.018907,-0.0037568,-0.0044883,0.011389,0.0044263,0.013894,0.0028331
11.377,-0.011294,0.012875,0.014969,-0.0069118,-0.0066318,0.0032546,-1.6521e-05,0.0050485,-0.0016861
11.387,-0.014205,0.001415,0.0044462,-0.0024834,-0.0022852,0.0025999,0.0020351,0.0021314,0.0012479
11.396,0.014416,0.017219,0.018143,-0.012623,-0.012822,0.016909,0.0078655,0.011799,0.0097578
11.406,0.018553,0.0086774,0.0063844,0.0050222,0.0049722,0.0087223,0.0058543,0.0073838,0.0041796
11.416,0.012562,0.0058241,0.0048079,-0.0012189,-0.00097012,0.0051874,0.0025142,0.0073324,0.003885
11.426,0.01874,0.0076452,0.0065576,0.0079637,0.0079012,0.008561,0.0045145,0.009175,0.0038346
11.436,0.0063703,-0.0021392,-0.0033441,0.0025866,0.0018897,-0.00025036,0.00062484,0.0017514,0.0019133
11.445,0.031359,0.017447,0.016565,0.0025987,0.0019853,0.015339,0.0077639,0.016446,0.0028188
11.455,0.011372,-0.00053642,-0.0013282,-0.0058382,-0.0078769,-0.0022078,-0.0017385,-0.0019966,-0.0037524
11.465,0.014987,-0.0037735,-0.0025781,-0.0070971,-0.0073582,-0.0034729,-0.0025243,-0.0088527,-0.0048164
11.475,0.17564,-0.016688,-0.0010121,-0.0039058,-0.0024515,0.0025056,0.011616,0.0019849,0.0027477
11.484,0.35279,-0.027893,-0.02764,0.0027605,0.0011696,-0.0017373,0.00070094,-0.002523,-0.0066315
11.494,0.099839,0.0037522,-0.0098179,-0.0011264,7.3396e-05,-0.0048122,-0.016779,0.00078819,-0.0034121
11.504,-0.36047,0.02062,0.016822,0.0023656,-0.0013247,-0.0015359,-0.023671,-0.0031581,-0.0030274
11.514,-0.54475,-0.023716,-0.02302,0.00026831,-0.0051663,-0.00040649,0.00046498,-0.0026061,-0.0031797
11.523,-0.30728,0.012973,0.0092249,-0.0041582,-0.0059483,0.00075724,0.0086222,0.0047896,-0.0024988
11.533,-0.010918,0.017043,0.0087196,0.0037721,0.0032492,0.011704,0.010683,0.00010474,-0.0080112
11.543,0.016993,-0.0023256,-0.0020749,0.00093139,0.00036004,-0.01184,-0.0061188,-0.010405,-0.0026985
11.553,0.026324,0.011575,0.011451,-0.0046056,-0.0042384,0.0018842,0.001093,0.0054963,-0.002524
11.563,0.018339,0.0015392,-9.8662e-05,0.0048318,0.0057051,0.00069487,0.0018678,-4.7595e-05,0.0030034
11.572,0.019116,0.0011981,0.0020512,-0.00045606,-0.00058612,-0.0023052,-0.0020465,-0.0045439,0.00086359
11.582,0.014286,-5.1746e-05,-0.0016042,0.0034521,0.0033676,-0.0022055,-0.0011579,-0.0023013,0.001782
11.592,0.025678,0.010469,0.011612,-0.002264,-0.0016759,0.0056816,0.0048139,0.0063906,0.0018335
11.602,0.013218,0.0013384,-5.7526e-05,-0.0046443,-0.0040853,-0.00021486,0.0010634,0.0012969,-0.0020813
11.611,0.023928,0.00051398,-8.0647e-05,-0.0014615,-0.0017596,-0.0016129,-0.0012553,-0.0033658,-0.0029891
11.621,0.022322,-0.0055029,-0.0062302,-0.0065234,-0.0057724,-0.0017965,-0.0019882,-0.0036994,-0.0018639
11.631,0.010207,-0.010166,-0.0088341,-0.00067771,-0.00048419,-0.0011456,-0.0033243,-0.0028651,0.0026406
11.641,-0.0085728,-0.0067532,-0.004858,-0.0063517,-0.0068918,-0.0036234,-0.0047805,-0.0040224,-0.0025519
